h[m], water_content[-], rel_perm[-]
  0.000000,   0.380000,   1.000000
  0.009009,   0.379881,   0.999605
  0.018018,   0.379748,   0.999166
  0.027027,   0.379609,   0.998710
  0.036036,   0.379466,   0.998244
  0.045045,   0.379321,   0.997771
  0.054054,   0.379175,   0.997294
  0.063063,   0.379027,   0.996812
  0.072072,   0.378878,   0.996328
  0.081081,   0.378728,   0.995843
  0.090090,   0.378578,   0.995355
  0.099099,   0.378427,   0.994867
  0.108108,   0.378277,   0.994378
  0.117117,   0.378126,   0.993890
  0.126126,   0.377974,   0.993401
  0.135135,   0.377823,   0.992912
  0.144144,   0.377672,   0.992424
  0.153153,   0.377521,   0.991936
  0.162162,   0.377370,   0.991450
  0.171171,   0.377220,   0.990964
  0.180180,   0.377069,   0.990479
  0.189189,   0.376919,   0.989995
  0.198198,   0.376770,   0.989513
  0.207207,   0.376620,   0.989032
  0.216216,   0.376471,   0.988552
  0.225225,   0.376322,   0.988073
  0.234234,   0.376174,   0.987596
  0.243243,   0.376026,   0.987120
  0.252252,   0.375879,   0.986646
  0.261261,   0.375732,   0.986174
  0.270270,   0.375585,   0.985703
  0.279279,   0.375439,   0.985234
  0.288288,   0.375294,   0.984766
  0.297297,   0.375149,   0.984301
  0.306306,   0.375004,   0.983836
  0.315315,   0.374860,   0.983374
  0.324324,   0.374717,   0.982913
  0.333333,   0.374574,   0.982454
  0.342342,   0.374431,   0.981997
  0.351351,   0.374289,   0.981542
  0.360360,   0.374148,   0.981089
  0.369369,   0.374007,   0.980637
  0.378378,   0.373866,   0.980187
  0.387387,   0.373727,   0.979739
  0.396396,   0.373587,   0.979293
  0.405405,   0.373449,   0.978848
  0.414414,   0.373310,   0.978406
  0.423423,   0.373173,   0.977965
  0.432432,   0.373036,   0.977526
  0.441441,   0.372899,   0.977089
  0.450450,   0.372763,   0.976653
  0.459459,   0.372628,   0.976220
  0.468468,   0.372493,   0.975788
  0.477477,   0.372358,   0.975358
  0.486486,   0.372225,   0.974930
  0.495495,   0.372091,   0.974504
  0.504505,   0.371959,   0.974079
  0.513514,   0.371827,   0.973657
  0.522523,   0.371695,   0.973236
  0.531532,   0.371564,   0.972816
  0.540541,   0.371433,   0.972399
  0.549550,   0.371303,   0.971983
  0.558559,   0.371174,   0.971570
  0.567568,   0.371045,   0.971158
  0.576577,   0.370916,   0.970747
  0.585586,   0.370789,   0.970339
  0.594595,   0.370661,   0.969932
  0.603604,   0.370534,   0.969526
  0.612613,   0.370408,   0.969123
  0.621622,   0.370282,   0.968721
  0.630631,   0.370157,   0.968321
  0.639640,   0.370032,   0.967923
  0.648649,   0.369908,   0.967526
  0.657658,   0.369784,   0.967131
  0.666667,   0.369661,   0.966738
  0.675676,   0.369539,   0.966346
  0.684685,   0.369416,   0.965956
  0.693694,   0.369295,   0.965568
  0.702703,   0.369173,   0.965181
  0.711712,   0.369053,   0.964796
  0.720721,   0.368933,   0.964412
  0.729730,   0.368813,   0.964030
  0.738739,   0.368694,   0.963650
  0.747748,   0.368575,   0.963271
  0.756757,   0.368457,   0.962894
  0.765766,   0.368339,   0.962518
  0.774775,   0.368222,   0.962144
  0.783784,   0.368105,   0.961771
  0.792793,   0.367989,   0.961400
  0.801802,   0.367873,   0.961030
  0.810811,   0.367757,   0.960662
  0.819820,   0.367642,   0.960296
  0.828829,   0.367528,   0.959931
  0.837838,   0.367414,   0.959567
  0.846847,   0.367300,   0.959205
  0.855856,   0.367187,   0.958845
  0.864865,   0.367075,   0.958485
  0.873874,   0.366962,   0.958128
  0.882883,   0.366851,   0.957771
  0.891892,   0.366739,   0.957417
  0.900901,   0.366628,   0.957063
  0.909910,   0.366518,   0.956711
  0.918919,   0.366408,   0.956361
  0.927928,   0.366298,   0.956011
  0.936937,   0.366189,   0.955664
  0.945946,   0.366081,   0.955317
  0.954955,   0.365972,   0.954972
  0.963964,   0.365864,   0.954628
  0.972973,   0.365757,   0.954286
  0.981982,   0.365650,   0.953945
  0.990991,   0.365543,   0.953605
  1.000000,   0.365437,   0.953267
  1.009009,   0.365331,   0.952930
  1.018018,   0.365226,   0.952594
  1.027027,   0.365121,   0.952260
  1.036036,   0.365017,   0.951927
  1.045045,   0.364912,   0.951595
  1.054054,   0.364809,   0.951264
  1.063063,   0.364705,   0.950935
  1.072072,   0.364602,   0.950607
  1.081081,   0.364500,   0.950280
  1.090090,   0.364397,   0.949955
  1.099099,   0.364296,   0.949630
  1.108108,   0.364194,   0.949307
  1.117117,   0.364093,   0.948985
  1.126126,   0.363992,   0.948665
  1.135135,   0.363892,   0.948345
  1.144144,   0.363792,   0.948027
  1.153153,   0.363693,   0.947710
  1.162162,   0.363593,   0.947394
  1.171171,   0.363494,   0.947079
  1.180180,   0.363396,   0.946766
  1.189189,   0.363298,   0.946453
  1.198198,   0.363200,   0.946142
  1.207207,   0.363103,   0.945832
  1.216216,   0.363006,   0.945523
  1.225225,   0.362909,   0.945215
  1.234234,   0.362813,   0.944909
  1.243243,   0.362717,   0.944603
  1.252252,   0.362621,   0.944299
  1.261261,   0.362526,   0.943995
  1.270270,   0.362431,   0.943693
  1.279279,   0.362336,   0.943392
  1.288288,   0.362242,   0.943092
  1.297297,   0.362148,   0.942793
  1.306306,   0.362054,   0.942495
  1.315315,   0.361961,   0.942198
  1.324324,   0.361868,   0.941902
  1.333333,   0.361775,   0.941607
  1.342342,   0.361683,   0.941313
  1.351351,   0.361591,   0.941021
  1.360360,   0.361499,   0.940729
  1.369369,   0.361408,   0.940438
  1.378378,   0.361317,   0.940149
  1.387387,   0.361226,   0.939860
  1.396396,   0.361136,   0.939572
  1.405405,   0.361046,   0.939286
  1.414414,   0.360956,   0.939000
  1.423423,   0.360867,   0.938715
  1.432432,   0.360778,   0.938432
  1.441441,   0.360689,   0.938149
  1.450450,   0.360600,   0.937867
  1.459459,   0.360512,   0.937586
  1.468468,   0.360424,   0.937307
  1.477477,   0.360336,   0.937028
  1.486486,   0.360249,   0.936750
  1.495495,   0.360162,   0.936473
  1.504505,   0.360075,   0.936197
  1.513514,   0.359989,   0.935922
  1.522523,   0.359902,   0.935647
  1.531532,   0.359817,   0.935374
  1.540541,   0.359731,   0.935102
  1.549550,   0.359646,   0.934830
  1.558559,   0.359561,   0.934560
  1.567568,   0.359476,   0.934290
  1.576577,   0.359391,   0.934021
  1.585586,   0.359307,   0.933753
  1.594595,   0.359223,   0.933486
  1.603604,   0.359139,   0.933220
  1.612613,   0.359056,   0.932955
  1.621622,   0.358973,   0.932690
  1.630631,   0.358890,   0.932427
  1.639640,   0.358807,   0.932164
  1.648649,   0.358725,   0.931902
  1.657658,   0.358643,   0.931641
  1.666667,   0.358561,   0.931381
  1.675676,   0.358480,   0.931122
  1.684685,   0.358398,   0.930863
  1.693694,   0.358317,   0.930605
  1.702703,   0.358237,   0.930349
  1.711712,   0.358156,   0.930093
  1.720721,   0.358076,   0.929837
  1.729730,   0.357996,   0.929583
  1.738739,   0.357916,   0.929329
  1.747748,   0.357837,   0.929076
  1.756757,   0.357757,   0.928824
  1.765766,   0.357678,   0.928573
  1.774775,   0.357600,   0.928323
  1.783784,   0.357521,   0.928073
  1.792793,   0.357443,   0.927824
  1.801802,   0.357365,   0.927576
  1.810811,   0.357287,   0.927328
  1.819820,   0.357209,   0.927082
  1.828829,   0.357132,   0.926836
  1.837838,   0.357055,   0.926591
  1.846847,   0.356978,   0.926346
  1.855856,   0.356902,   0.926103
  1.864865,   0.356825,   0.925860
  1.873874,   0.356749,   0.925618
  1.882883,   0.356673,   0.925376
  1.891892,   0.356597,   0.925136
  1.900901,   0.356522,   0.924896
  1.909910,   0.356447,   0.924656
  1.918919,   0.356372,   0.924418
  1.927928,   0.356297,   0.924180
  1.936937,   0.356222,   0.923943
  1.945946,   0.356148,   0.923706
  1.954955,   0.356074,   0.923471
  1.963964,   0.356000,   0.923236
  1.972973,   0.355926,   0.923001
  1.981982,   0.355853,   0.922768
  1.990991,   0.355780,   0.922535
  2.000000,   0.355707,   0.922303
  2.009009,   0.355634,   0.922071
  2.018018,   0.355561,   0.921840
  2.027027,   0.355489,   0.921610
  2.036036,   0.355416,   0.921380
  2.045045,   0.355344,   0.921151
  2.054054,   0.355273,   0.920923
  2.063063,   0.355201,   0.920695
  2.072072,   0.355130,   0.920469
  2.081081,   0.355059,   0.920242
  2.090090,   0.354988,   0.920017
  2.099099,   0.354917,   0.919792
  2.108108,   0.354846,   0.919567
  2.117117,   0.354776,   0.919344
  2.126126,   0.354706,   0.919120
  2.135135,   0.354636,   0.918898
  2.144144,   0.354566,   0.918676
  2.153153,   0.354496,   0.918455
  2.162162,   0.354427,   0.918234
  2.171171,   0.354358,   0.918014
  2.180180,   0.354289,   0.917795
  2.189189,   0.354220,   0.917576
  2.198198,   0.354151,   0.917358
  2.207207,   0.354083,   0.917141
  2.216216,   0.354015,   0.916924
  2.225225,   0.353947,   0.916707
  2.234234,   0.353879,   0.916492
  2.243243,   0.353811,   0.916277
  2.252252,   0.353744,   0.916062
  2.261261,   0.353676,   0.915848
  2.270270,   0.353609,   0.915635
  2.279279,   0.353542,   0.915422
  2.288288,   0.353476,   0.915210
  2.297297,   0.353409,   0.914998
  2.306306,   0.353343,   0.914787
  2.315315,   0.353276,   0.914576
  2.324324,   0.353210,   0.914366
  2.333333,   0.353145,   0.914157
  2.342342,   0.353079,   0.913948
  2.351351,   0.353013,   0.913740
  2.360360,   0.352948,   0.913532
  2.369369,   0.352883,   0.913325
  2.378378,   0.352818,   0.913118
  2.387387,   0.352753,   0.912912
  2.396396,   0.352688,   0.912707
  2.405405,   0.352624,   0.912502
  2.414414,   0.352560,   0.912297
  2.423423,   0.352495,   0.912094
  2.432432,   0.352431,   0.911890
  2.441441,   0.352368,   0.911687
  2.450450,   0.352304,   0.911485
  2.459459,   0.352241,   0.911283
  2.468468,   0.352177,   0.911082
  2.477477,   0.352114,   0.910881
  2.486486,   0.352051,   0.910681
  2.495495,   0.351988,   0.910481
  2.504505,   0.351926,   0.910282
  2.513514,   0.351863,   0.910083
  2.522523,   0.351801,   0.909885
  2.531532,   0.351739,   0.909688
  2.540541,   0.351677,   0.909490
  2.549550,   0.351615,   0.909294
  2.558559,   0.351553,   0.909098
  2.567568,   0.351491,   0.908902
  2.576577,   0.351430,   0.908707
  2.585586,   0.351369,   0.908512
  2.594595,   0.351308,   0.908318
  2.603604,   0.351247,   0.908124
  2.612613,   0.351186,   0.907931
  2.621622,   0.351125,   0.907738
  2.630631,   0.351065,   0.907546
  2.639640,   0.351005,   0.907354
  2.648649,   0.350944,   0.907163
  2.657658,   0.350884,   0.906972
  2.666667,   0.350825,   0.906782
  2.675676,   0.350765,   0.906592
  2.684685,   0.350705,   0.906402
  2.693694,   0.350646,   0.906214
  2.702703,   0.350586,   0.906025
  2.711712,   0.350527,   0.905837
  2.720721,   0.350468,   0.905649
  2.729730,   0.350409,   0.905462
  2.738739,   0.350351,   0.905276
  2.747748,   0.350292,   0.905089
  2.756757,   0.350234,   0.904904
  2.765766,   0.350175,   0.904718
  2.774775,   0.350117,   0.904534
  2.783784,   0.350059,   0.904349
  2.792793,   0.350001,   0.904165
  2.801802,   0.349944,   0.903982
  2.810811,   0.349886,   0.903799
  2.819820,   0.349829,   0.903616
  2.828829,   0.349771,   0.903434
  2.837838,   0.349714,   0.903252
  2.846847,   0.349657,   0.903071
  2.855856,   0.349600,   0.902890
  2.864865,   0.349543,   0.902709
  2.873874,   0.349487,   0.902529
  2.882883,   0.349430,   0.902349
  2.891892,   0.349374,   0.902170
  2.900901,   0.349318,   0.901991
  2.909910,   0.349261,   0.901813
  2.918919,   0.349205,   0.901635
  2.927928,   0.349150,   0.901457
  2.936937,   0.349094,   0.901280
  2.945946,   0.349038,   0.901104
  2.954955,   0.348983,   0.900927
  2.963964,   0.348927,   0.900751
  2.972973,   0.348872,   0.900576
  2.981982,   0.348817,   0.900401
  2.990991,   0.348762,   0.900226
  3.000000,   0.348707,   0.900052
  3.009009,   0.348653,   0.899878
  3.018018,   0.348598,   0.899704
  3.027027,   0.348544,   0.899531
  3.036036,   0.348489,   0.899358
  3.045045,   0.348435,   0.899186
  3.054054,   0.348381,   0.899014
  3.063063,   0.348327,   0.898843
  3.072072,   0.348273,   0.898671
  3.081081,   0.348219,   0.898501
  3.090090,   0.348166,   0.898330
  3.099099,   0.348112,   0.898160
  3.108108,   0.348059,   0.897991
  3.117117,   0.348006,   0.897821
  3.126126,   0.347953,   0.897652
  3.135135,   0.347900,   0.897484
  3.144144,   0.347847,   0.897316
  3.153153,   0.347794,   0.897148
  3.162162,   0.347741,   0.896981
  3.171171,   0.347689,   0.896814
  3.180180,   0.347636,   0.896647
  3.189189,   0.347584,   0.896481
  3.198198,   0.347532,   0.896315
  3.207207,   0.347480,   0.896149
  3.216216,   0.347428,   0.895984
  3.225225,   0.347376,   0.895819
  3.234234,   0.347324,   0.895655
  3.243243,   0.347272,   0.895490
  3.252252,   0.347221,   0.895327
  3.261261,   0.347170,   0.895163
  3.270270,   0.347118,   0.895000
  3.279279,   0.347067,   0.894838
  3.288288,   0.347016,   0.894675
  3.297297,   0.346965,   0.894513
  3.306306,   0.346914,   0.894352
  3.315315,   0.346863,   0.894190
  3.324324,   0.346813,   0.894029
  3.333333,   0.346762,   0.893869
  3.342342,   0.346712,   0.893708
  3.351351,   0.346661,   0.893548
  3.360360,   0.346611,   0.893389
  3.369369,   0.346561,   0.893229
  3.378378,   0.346511,   0.893071
  3.387387,   0.346461,   0.892912
  3.396396,   0.346411,   0.892754
  3.405405,   0.346362,   0.892596
  3.414414,   0.346312,   0.892438
  3.423423,   0.346263,   0.892281
  3.432432,   0.346213,   0.892124
  3.441441,   0.346164,   0.891967
  3.450450,   0.346115,   0.891811
  3.459459,   0.346066,   0.891655
  3.468468,   0.346017,   0.891499
  3.477477,   0.345968,   0.891344
  3.486486,   0.345919,   0.891189
  3.495495,   0.345871,   0.891034
  3.504505,   0.345822,   0.890880
  3.513514,   0.345774,   0.890726
  3.522523,   0.345725,   0.890572
  3.531532,   0.345677,   0.890419
  3.540541,   0.345629,   0.890266
  3.549550,   0.345581,   0.890113
  3.558559,   0.345533,   0.889961
  3.567568,   0.345485,   0.889808
  3.576577,   0.345437,   0.889657
  3.585586,   0.345389,   0.889505
  3.594595,   0.345342,   0.889354
  3.603604,   0.345294,   0.889203
  3.612613,   0.345247,   0.889052
  3.621622,   0.345200,   0.888902
  3.630631,   0.345153,   0.888752
  3.639640,   0.345105,   0.888602
  3.648649,   0.345058,   0.888453
  3.657658,   0.345012,   0.888304
  3.666667,   0.344965,   0.888155
  3.675676,   0.344918,   0.888006
  3.684685,   0.344871,   0.887858
  3.693694,   0.344825,   0.887710
  3.702703,   0.344778,   0.887562
  3.711712,   0.344732,   0.887415
  3.720721,   0.344686,   0.887268
  3.729730,   0.344640,   0.887121
  3.738739,   0.344593,   0.886975
  3.747748,   0.344548,   0.886828
  3.756757,   0.344502,   0.886683
  3.765766,   0.344456,   0.886537
  3.774775,   0.344410,   0.886392
  3.783784,   0.344364,   0.886247
  3.792793,   0.344319,   0.886102
  3.801802,   0.344273,   0.885957
  3.810811,   0.344228,   0.885813
  3.819820,   0.344183,   0.885669
  3.828829,   0.344138,   0.885525
  3.837838,   0.344092,   0.885382
  3.846847,   0.344047,   0.885239
  3.855856,   0.344003,   0.885096
  3.864865,   0.343958,   0.884954
  3.873874,   0.343913,   0.884811
  3.882883,   0.343868,   0.884669
  3.891892,   0.343824,   0.884527
  3.900901,   0.343779,   0.884386
  3.909910,   0.343735,   0.884245
  3.918919,   0.343690,   0.884104
  3.927928,   0.343646,   0.883963
  3.936937,   0.343602,   0.883823
  3.945946,   0.343558,   0.883683
  3.954955,   0.343514,   0.883543
  3.963964,   0.343470,   0.883403
  3.972973,   0.343426,   0.883264
  3.981982,   0.343382,   0.883125
  3.990991,   0.343339,   0.882986
  4.000000,   0.343295,   0.882847
  4.009009,   0.343252,   0.882709
  4.018018,   0.343208,   0.882571
  4.027027,   0.343165,   0.882433
  4.036036,   0.343122,   0.882296
  4.045045,   0.343078,   0.882158
  4.054054,   0.343035,   0.882021
  4.063063,   0.342992,   0.881885
  4.072072,   0.342949,   0.881748
  4.081081,   0.342906,   0.881612
  4.090090,   0.342864,   0.881476
  4.099099,   0.342821,   0.881340
  4.108108,   0.342778,   0.881205
  4.117117,   0.342736,   0.881069
  4.126126,   0.342693,   0.880934
  4.135135,   0.342651,   0.880799
  4.144144,   0.342609,   0.880665
  4.153153,   0.342566,   0.880531
  4.162162,   0.342524,   0.880397
  4.171171,   0.342482,   0.880263
  4.180180,   0.342440,   0.880129
  4.189189,   0.342398,   0.879996
  4.198198,   0.342356,   0.879863
  4.207207,   0.342315,   0.879730
  4.216216,   0.342273,   0.879597
  4.225225,   0.342231,   0.879465
  4.234234,   0.342190,   0.879333
  4.243243,   0.342148,   0.879201
  4.252252,   0.342107,   0.879069
  4.261261,   0.342065,   0.878938
  4.270270,   0.342024,   0.878807
  4.279279,   0.341983,   0.878676
  4.288288,   0.341942,   0.878545
  4.297297,   0.341901,   0.878415
  4.306306,   0.341860,   0.878284
  4.315315,   0.341819,   0.878154
  4.324324,   0.341778,   0.878025
  4.333333,   0.341737,   0.877895
  4.342342,   0.341697,   0.877766
  4.351351,   0.341656,   0.877637
  4.360360,   0.341616,   0.877508
  4.369369,   0.341575,   0.877379
  4.378378,   0.341535,   0.877251
  4.387387,   0.341494,   0.877122
  4.396396,   0.341454,   0.876994
  4.405405,   0.341414,   0.876867
  4.414414,   0.341374,   0.876739
  4.423423,   0.341334,   0.876612
  4.432432,   0.341294,   0.876485
  4.441441,   0.341254,   0.876358
  4.450450,   0.341214,   0.876231
  4.459459,   0.341174,   0.876105
  4.468468,   0.341135,   0.875979
  4.477477,   0.341095,   0.875853
  4.486486,   0.341055,   0.875727
  4.495495,   0.341016,   0.875601
  4.504505,   0.340976,   0.875476
  4.513514,   0.340937,   0.875351
  4.522523,   0.340898,   0.875226
  4.531532,   0.340859,   0.875101
  4.540541,   0.340819,   0.874977
  4.549550,   0.340780,   0.874852
  4.558559,   0.340741,   0.874728
  4.567568,   0.340702,   0.874604
  4.576577,   0.340663,   0.874481
  4.585586,   0.340625,   0.874357
  4.594595,   0.340586,   0.874234
  4.603604,   0.340547,   0.874111
  4.612613,   0.340508,   0.873988
  4.621622,   0.340470,   0.873866
  4.630631,   0.340431,   0.873743
  4.639640,   0.340393,   0.873621
  4.648649,   0.340355,   0.873499
  4.657658,   0.340316,   0.873377
  4.666667,   0.340278,   0.873256
  4.675676,   0.340240,   0.873134
  4.684685,   0.340202,   0.873013
  4.693694,   0.340164,   0.872892
  4.702703,   0.340126,   0.872771
  4.711712,   0.340088,   0.872651
  4.720721,   0.340050,   0.872530
  4.729730,   0.340012,   0.872410
  4.738739,   0.339974,   0.872290
  4.747748,   0.339937,   0.872170
  4.756757,   0.339899,   0.872051
  4.765766,   0.339861,   0.871931
  4.774775,   0.339824,   0.871812
  4.783784,   0.339787,   0.871693
  4.792793,   0.339749,   0.871574
  4.801802,   0.339712,   0.871455
  4.810811,   0.339675,   0.871337
  4.819820,   0.339637,   0.871219
  4.828829,   0.339600,   0.871101
  4.837838,   0.339563,   0.870983
  4.846847,   0.339526,   0.870865
  4.855856,   0.339489,   0.870748
  4.864865,   0.339452,   0.870630
  4.873874,   0.339416,   0.870513
  4.882883,   0.339379,   0.870396
  4.891892,   0.339342,   0.870280
  4.900901,   0.339305,   0.870163
  4.909910,   0.339269,   0.870047
  4.918919,   0.339232,   0.869931
  4.927928,   0.339196,   0.869815
  4.936937,   0.339159,   0.869699
  4.945946,   0.339123,   0.869583
  4.954955,   0.339087,   0.869468
  4.963964,   0.339050,   0.869352
  4.972973,   0.339014,   0.869237
  4.981982,   0.338978,   0.869123
  4.990991,   0.338942,   0.869008
  5.000000,   0.338906,   0.868893
  5.009009,   0.338870,   0.868779
  5.018018,   0.338834,   0.868665
  5.027027,   0.338798,   0.868551
  5.036036,   0.338763,   0.868437
  5.045045,   0.338727,   0.868323
  5.054054,   0.338691,   0.868210
  5.063063,   0.338656,   0.868097
  5.072072,   0.338620,   0.867984
  5.081081,   0.338584,   0.867871
  5.090090,   0.338549,   0.867758
  5.099099,   0.338514,   0.867645
  5.108108,   0.338478,   0.867533
  5.117117,   0.338443,   0.867421
  5.126126,   0.338408,   0.867309
