h[m], water_content[-], rel_perm[-]
  0.000000,   0.410000,   1.000000
  0.009009,   0.409640,   0.998501
  0.018018,   0.409110,   0.996301
  0.027027,   0.408494,   0.993742
  0.036036,   0.407817,   0.990933
  0.045045,   0.407094,   0.987932
  0.054054,   0.406334,   0.984780
  0.063063,   0.405543,   0.981505
  0.072072,   0.404728,   0.978131
  0.081081,   0.403892,   0.974674
  0.090090,   0.403039,   0.971150
  0.099099,   0.402172,   0.967570
  0.108108,   0.401293,   0.963946
  0.117117,   0.400405,   0.960285
  0.126126,   0.399509,   0.956596
  0.135135,   0.398607,   0.952886
  0.144144,   0.397700,   0.949160
  0.153153,   0.396790,   0.945423
  0.162162,   0.395878,   0.941681
  0.171171,   0.394964,   0.937937
  0.180180,   0.394050,   0.934196
  0.189189,   0.393137,   0.930459
  0.198198,   0.392224,   0.926731
  0.207207,   0.391314,   0.923013
  0.216216,   0.390405,   0.919309
  0.225225,   0.389500,   0.915619
  0.234234,   0.388598,   0.911947
  0.243243,   0.387699,   0.908293
  0.252252,   0.386805,   0.904658
  0.261261,   0.385915,   0.901046
  0.270270,   0.385030,   0.897455
  0.279279,   0.384149,   0.893888
  0.288288,   0.383274,   0.890345
  0.297297,   0.382404,   0.886826
  0.306306,   0.381540,   0.883334
  0.315315,   0.380681,   0.879868
  0.324324,   0.379828,   0.876428
  0.333333,   0.378981,   0.873015
  0.342342,   0.378140,   0.869630
  0.351351,   0.377305,   0.866273
  0.360360,   0.376476,   0.862943
  0.369369,   0.375654,   0.859642
  0.378378,   0.374838,   0.856369
  0.387387,   0.374028,   0.853124
  0.396396,   0.373225,   0.849908
  0.405405,   0.372428,   0.846720
  0.414414,   0.371637,   0.843560
  0.423423,   0.370853,   0.840429
  0.432432,   0.370075,   0.837326
  0.441441,   0.369304,   0.834252
  0.450450,   0.368539,   0.831205
  0.459459,   0.367780,   0.828187
  0.468468,   0.367028,   0.825196
  0.477477,   0.366282,   0.822233
  0.486486,   0.365542,   0.819297
  0.495495,   0.364809,   0.816388
  0.504505,   0.364082,   0.813507
  0.513514,   0.363361,   0.810652
  0.522523,   0.362646,   0.807825
  0.531532,   0.361937,   0.805023
  0.540541,   0.361234,   0.802248
  0.549550,   0.360537,   0.799498
  0.558559,   0.359846,   0.796774
  0.567568,   0.359161,   0.794076
  0.576577,   0.358482,   0.791403
  0.585586,   0.357809,   0.788755
  0.594595,   0.357141,   0.786131
  0.603604,   0.356480,   0.783532
  0.612613,   0.355823,   0.780957
  0.621622,   0.355173,   0.778406
  0.630631,   0.354528,   0.775878
  0.639640,   0.353888,   0.773374
  0.648649,   0.353254,   0.770892
  0.657658,   0.352625,   0.768434
  0.666667,   0.352001,   0.765998
  0.675676,   0.351383,   0.763585
  0.684685,   0.350769,   0.761193
  0.693694,   0.350161,   0.758823
  0.702703,   0.349558,   0.756475
  0.711712,   0.348960,   0.754148
  0.720721,   0.348367,   0.751842
  0.729730,   0.347779,   0.749556
  0.738739,   0.347196,   0.747291
  0.747748,   0.346617,   0.745047
  0.756757,   0.346044,   0.742822
  0.765766,   0.345475,   0.740617
  0.774775,   0.344910,   0.738431
  0.783784,   0.344350,   0.736265
  0.792793,   0.343795,   0.734118
  0.801802,   0.343244,   0.731989
  0.810811,   0.342698,   0.729879
  0.819820,   0.342156,   0.727788
  0.828829,   0.341618,   0.725714
  0.837838,   0.341085,   0.723659
  0.846847,   0.340555,   0.721621
  0.855856,   0.340030,   0.719600
  0.864865,   0.339509,   0.717597
  0.873874,   0.338993,   0.715610
  0.882883,   0.338480,   0.713641
  0.891892,   0.337971,   0.711688
  0.900901,   0.337466,   0.709751
  0.909910,   0.336965,   0.707831
  0.918919,   0.336468,   0.705926
  0.927928,   0.335975,   0.704037
  0.936937,   0.335485,   0.702164
  0.945946,   0.334999,   0.700306
  0.954955,   0.334517,   0.698464
  0.963964,   0.334038,   0.696636
  0.972973,   0.333563,   0.694823
  0.981982,   0.333092,   0.693025
  0.990991,   0.332624,   0.691241
  1.000000,   0.332160,   0.689472
  1.009009,   0.331699,   0.687717
  1.018018,   0.331241,   0.685975
  1.027027,   0.330787,   0.684248
  1.036036,   0.330336,   0.682534
  1.045045,   0.329888,   0.680833
  1.054054,   0.329444,   0.679146
  1.063063,   0.329002,   0.677472
  1.072072,   0.328564,   0.675811
  1.081081,   0.328129,   0.674163
  1.090090,   0.327697,   0.672527
  1.099099,   0.327268,   0.670904
  1.108108,   0.326843,   0.669293
  1.117117,   0.326420,   0.667694
  1.126126,   0.326000,   0.666108
  1.135135,   0.325583,   0.664533
  1.144144,   0.325169,   0.662971
  1.153153,   0.324758,   0.661419
  1.162162,   0.324349,   0.659880
  1.171171,   0.323944,   0.658351
  1.180180,   0.323541,   0.656834
  1.189189,   0.323141,   0.655329
  1.198198,   0.322743,   0.653834
  1.207207,   0.322349,   0.652350
  1.216216,   0.321957,   0.650876
  1.225225,   0.321567,   0.649414
  1.234234,   0.321180,   0.647962
  1.243243,   0.320796,   0.646520
  1.252252,   0.320414,   0.645088
  1.261261,   0.320035,   0.643667
  1.270270,   0.319658,   0.642256
  1.279279,   0.319284,   0.640854
  1.288288,   0.318912,   0.639463
  1.297297,   0.318543,   0.638081
  1.306306,   0.318176,   0.636708
  1.315315,   0.317811,   0.635346
  1.324324,   0.317449,   0.633992
  1.333333,   0.317088,   0.632648
  1.342342,   0.316731,   0.631313
  1.351351,   0.316375,   0.629987
  1.360360,   0.316022,   0.628670
  1.369369,   0.315671,   0.627362
  1.378378,   0.315322,   0.626063
  1.387387,   0.314975,   0.624772
  1.396396,   0.314630,   0.623490
  1.405405,   0.314288,   0.622217
  1.414414,   0.313947,   0.620952
  1.423423,   0.313609,   0.619695
  1.432432,   0.313273,   0.618447
  1.441441,   0.312938,   0.617207
  1.450450,   0.312606,   0.615974
  1.459459,   0.312276,   0.614750
  1.468468,   0.311948,   0.613534
  1.477477,   0.311621,   0.612325
  1.486486,   0.311297,   0.611124
  1.495495,   0.310975,   0.609931
  1.504505,   0.310654,   0.608746
  1.513514,   0.310336,   0.607568
  1.522523,   0.310019,   0.606397
  1.531532,   0.309704,   0.605234
  1.540541,   0.309391,   0.604078
  1.549550,   0.309079,   0.602929
  1.558559,   0.308770,   0.601787
  1.567568,   0.308462,   0.600653
  1.576577,   0.308156,   0.599525
  1.585586,   0.307852,   0.598404
  1.594595,   0.307549,   0.597291
  1.603604,   0.307249,   0.596183
  1.612613,   0.306950,   0.595083
  1.621622,   0.306652,   0.593989
  1.630631,   0.306356,   0.592902
  1.639640,   0.306062,   0.591822
  1.648649,   0.305770,   0.590747
  1.657658,   0.305479,   0.589680
  1.666667,   0.305190,   0.588618
  1.675676,   0.304902,   0.587563
  1.684685,   0.304616,   0.586514
  1.693694,   0.304331,   0.585471
  1.702703,   0.304048,   0.584434
  1.711712,   0.303767,   0.583404
  1.720721,   0.303487,   0.582379
  1.729730,   0.303208,   0.581360
  1.738739,   0.302931,   0.580347
  1.747748,   0.302656,   0.579340
  1.756757,   0.302382,   0.578339
  1.765766,   0.302109,   0.577343
  1.774775,   0.301838,   0.576353
  1.783784,   0.301568,   0.575368
  1.792793,   0.301300,   0.574390
  1.801802,   0.301033,   0.573416
  1.810811,   0.300767,   0.572448
  1.819820,   0.300503,   0.571486
  1.828829,   0.300240,   0.570528
  1.837838,   0.299979,   0.569576
  1.846847,   0.299719,   0.568630
  1.855856,   0.299460,   0.567688
  1.864865,   0.299202,   0.566752
  1.873874,   0.298946,   0.565820
  1.882883,   0.298691,   0.564894
  1.891892,   0.298438,   0.563973
  1.900901,   0.298185,   0.563057
  1.909910,   0.297934,   0.562145
  1.918919,   0.297684,   0.561239
  1.927928,   0.297436,   0.560337
  1.936937,   0.297188,   0.559441
  1.945946,   0.296942,   0.558549
  1.954955,   0.296697,   0.557661
  1.963964,   0.296454,   0.556779
  1.972973,   0.296211,   0.555901
  1.981982,   0.295970,   0.555027
  1.990991,   0.295729,   0.554158
  2.000000,   0.295490,   0.553294
  2.009009,   0.295253,   0.552434
  2.018018,   0.295016,   0.551578
  2.027027,   0.294780,   0.550727
  2.036036,   0.294546,   0.549881
  2.045045,   0.294312,   0.549038
  2.054054,   0.294080,   0.548200
  2.063063,   0.293849,   0.547366
  2.072072,   0.293619,   0.546537
  2.081081,   0.293390,   0.545711
  2.090090,   0.293162,   0.544890
  2.099099,   0.292935,   0.544073
  2.108108,   0.292709,   0.543259
  2.117117,   0.292484,   0.542450
  2.126126,   0.292260,   0.541645
  2.135135,   0.292037,   0.540844
  2.144144,   0.291816,   0.540047
  2.153153,   0.291595,   0.539254
  2.162162,   0.291375,   0.538464
  2.171171,   0.291157,   0.537679
  2.180180,   0.290939,   0.536897
  2.189189,   0.290722,   0.536119
  2.198198,   0.290506,   0.535345
  2.207207,   0.290292,   0.534575
  2.216216,   0.290078,   0.533808
  2.225225,   0.289865,   0.533045
  2.234234,   0.289653,   0.532286
  2.243243,   0.289442,   0.531530
  2.252252,   0.289232,   0.530777
  2.261261,   0.289023,   0.530029
  2.270270,   0.288814,   0.529284
  2.279279,   0.288607,   0.528542
  2.288288,   0.288400,   0.527804
  2.297297,   0.288195,   0.527069
  2.306306,   0.287990,   0.526338
  2.315315,   0.287786,   0.525610
  2.324324,   0.287584,   0.524885
  2.333333,   0.287382,   0.524164
  2.342342,   0.287180,   0.523446
  2.351351,   0.286980,   0.522731
  2.360360,   0.286781,   0.522020
  2.369369,   0.286582,   0.521312
  2.378378,   0.286384,   0.520607
  2.387387,   0.286187,   0.519905
  2.396396,   0.285991,   0.519207
  2.405405,   0.285796,   0.518511
  2.414414,   0.285601,   0.517819
  2.423423,   0.285408,   0.517130
  2.432432,   0.285215,   0.516444
  2.441441,   0.285023,   0.515761
  2.450450,   0.284831,   0.515081
  2.459459,   0.284641,   0.514404
  2.468468,   0.284451,   0.513729
  2.477477,   0.284262,   0.513058
  2.486486,   0.284074,   0.512390
  2.495495,   0.283887,   0.511725
  2.504505,   0.283700,   0.511063
  2.513514,   0.283514,   0.510403
  2.522523,   0.283329,   0.509746
  2.531532,   0.283144,   0.509093
  2.540541,   0.282961,   0.508442
  2.549550,   0.282778,   0.507793
  2.558559,   0.282596,   0.507148
  2.567568,   0.282414,   0.506505
  2.576577,   0.282233,   0.505865
  2.585586,   0.282053,   0.505228
  2.594595,   0.281874,   0.504594
  2.603604,   0.281695,   0.503962
  2.612613,   0.281517,   0.503333
  2.621622,   0.281340,   0.502706
  2.630631,   0.281163,   0.502082
  2.639640,   0.280988,   0.501461
  2.648649,   0.280812,   0.500842
  2.657658,   0.280638,   0.500226
  2.666667,   0.280464,   0.499612
  2.675676,   0.280291,   0.499001
  2.684685,   0.280118,   0.498393
  2.693694,   0.279946,   0.497787
  2.702703,   0.279775,   0.497183
  2.711712,   0.279605,   0.496582
  2.720721,   0.279435,   0.495983
  2.729730,   0.279265,   0.495387
  2.738739,   0.279097,   0.494793
  2.747748,   0.278929,   0.494201
  2.756757,   0.278761,   0.493612
  2.765766,   0.278595,   0.493026
  2.774775,   0.278428,   0.492441
  2.783784,   0.278263,   0.491859
  2.792793,   0.278098,   0.491279
  2.801802,   0.277934,   0.490702
  2.810811,   0.277770,   0.490127
  2.819820,   0.277607,   0.489554
  2.828829,   0.277444,   0.488983
  2.837838,   0.277282,   0.488415
  2.846847,   0.277121,   0.487849
  2.855856,   0.276960,   0.487285
  2.864865,   0.276800,   0.486723
  2.873874,   0.276641,   0.486164
  2.882883,   0.276482,   0.485606
  2.891892,   0.276323,   0.485051
  2.900901,   0.276165,   0.484498
  2.909910,   0.276008,   0.483947
  2.918919,   0.275851,   0.483398
  2.927928,   0.275695,   0.482851
  2.936937,   0.275540,   0.482307
  2.945946,   0.275385,   0.481764
  2.954955,   0.275230,   0.481223
  2.963964,   0.275076,   0.480685
  2.972973,   0.274923,   0.480148
  2.981982,   0.274770,   0.479614
  2.990991,   0.274617,   0.479082
  3.000000,   0.274466,   0.478551
  3.009009,   0.274314,   0.478023
  3.018018,   0.274163,   0.477496
  3.027027,   0.274013,   0.476972
  3.036036,   0.273863,   0.476449
  3.045045,   0.273714,   0.475928
  3.054054,   0.273566,   0.475410
  3.063063,   0.273417,   0.474893
  3.072072,   0.273270,   0.474378
  3.081081,   0.273122,   0.473865
  3.090090,   0.272976,   0.473354
  3.099099,   0.272830,   0.472844
  3.108108,   0.272684,   0.472337
  3.117117,   0.272539,   0.471831
  3.126126,   0.272394,   0.471328
  3.135135,   0.272250,   0.470826
  3.144144,   0.272106,   0.470325
  3.153153,   0.271963,   0.469827
  3.162162,   0.271820,   0.469331
  3.171171,   0.271678,   0.468836
  3.180180,   0.271536,   0.468343
  3.189189,   0.271394,   0.467851
  3.198198,   0.271253,   0.467362
  3.207207,   0.271113,   0.466874
  3.216216,   0.270973,   0.466388
  3.225225,   0.270833,   0.465904
  3.234234,   0.270694,   0.465421
  3.243243,   0.270556,   0.464940
  3.252252,   0.270418,   0.464461
  3.261261,   0.270280,   0.463983
  3.270270,   0.270143,   0.463507
  3.279279,   0.270006,   0.463033
  3.288288,   0.269869,   0.462560
  3.297297,   0.269733,   0.462089
  3.306306,   0.269598,   0.461620
  3.315315,   0.269463,   0.461152
  3.324324,   0.269328,   0.460686
  3.333333,   0.269194,   0.460221
  3.342342,   0.269060,   0.459758
  3.351351,   0.268927,   0.459297
  3.360360,   0.268794,   0.458837
  3.369369,   0.268661,   0.458378
  3.378378,   0.268529,   0.457922
  3.387387,   0.268398,   0.457467
  3.396396,   0.268266,   0.457013
  3.405405,   0.268135,   0.456561
  3.414414,   0.268005,   0.456110
  3.423423,   0.267875,   0.455661
  3.432432,   0.267745,   0.455213
  3.441441,   0.267616,   0.454767
  3.450450,   0.267487,   0.454322
  3.459459,   0.267359,   0.453879
  3.468468,   0.267231,   0.453438
  3.477477,   0.267103,   0.452997
  3.486486,   0.266976,   0.452558
  3.495495,   0.266849,   0.452121
  3.504505,   0.266722,   0.451685
  3.513514,   0.266596,   0.451251
  3.522523,   0.266470,   0.450818
  3.531532,   0.266345,   0.450386
  3.540541,   0.266220,   0.449956
  3.549550,   0.266095,   0.449527
  3.558559,   0.265971,   0.449099
  3.567568,   0.265847,   0.448673
  3.576577,   0.265724,   0.448248
  3.585586,   0.265601,   0.447825
  3.594595,   0.265478,   0.447403
  3.603604,   0.265356,   0.446982
  3.612613,   0.265234,   0.446563
  3.621622,   0.265112,   0.446145
  3.630631,   0.264991,   0.445728
  3.639640,   0.264870,   0.445313
  3.648649,   0.264749,   0.444899
  3.657658,   0.264629,   0.444486
  3.666667,   0.264509,   0.444075
  3.675676,   0.264390,   0.443664
  3.684685,   0.264270,   0.443256
  3.693694,   0.264152,   0.442848
  3.702703,   0.264033,   0.442442
  3.711712,   0.263915,   0.442037
  3.720721,   0.263797,   0.441633
  3.729730,   0.263680,   0.441230
  3.738739,   0.263563,   0.440829
  3.747748,   0.263446,   0.440429
  3.756757,   0.263329,   0.440030
  3.765766,   0.263213,   0.439633
  3.774775,   0.263097,   0.439236
  3.783784,   0.262982,   0.438841
  3.792793,   0.262867,   0.438447
  3.801802,   0.262752,   0.438054
  3.810811,   0.262638,   0.437663
  3.819820,   0.262523,   0.437273
  3.828829,   0.262410,   0.436883
  3.837838,   0.262296,   0.436495
  3.846847,   0.262183,   0.436109
  3.855856,   0.262070,   0.435723
  3.864865,   0.261958,   0.435338
  3.873874,   0.261845,   0.434955
  3.882883,   0.261733,   0.434573
  3.891892,   0.261622,   0.434192
  3.900901,   0.261510,   0.433812
  3.909910,   0.261399,   0.433433
  3.918919,   0.261289,   0.433055
  3.927928,   0.261178,   0.432679
  3.936937,   0.261068,   0.432303
  3.945946,   0.260959,   0.431929
  3.954955,   0.260849,   0.431556
  3.963964,   0.260740,   0.431184
  3.972973,   0.260631,   0.430813
  3.981982,   0.260522,   0.430443
  3.990991,   0.260414,   0.430074
  4.000000,   0.260306,   0.429706
  4.009009,   0.260198,   0.429339
  4.018018,   0.260091,   0.428974
  4.027027,   0.259984,   0.428609
  4.036036,   0.259877,   0.428246
  4.045045,   0.259770,   0.427883
  4.054054,   0.259664,   0.427522
  4.063063,   0.259558,   0.427161
  4.072072,   0.259453,   0.426802
  4.081081,   0.259347,   0.426444
  4.090090,   0.259242,   0.426086
  4.099099,   0.259137,   0.425730
  4.108108,   0.259033,   0.425375
  4.117117,   0.258928,   0.425020
  4.126126,   0.258824,   0.424667
  4.135135,   0.258720,   0.424315
  4.144144,   0.258617,   0.423964
  4.153153,   0.258514,   0.423613
  4.162162,   0.258411,   0.423264
  4.171171,   0.258308,   0.422916
  4.180180,   0.258206,   0.422568
  4.189189,   0.258104,   0.422222
  4.198198,   0.258002,   0.421876
  4.207207,   0.257900,   0.421532
  4.216216,   0.257799,   0.421189
  4.225225,   0.257698,   0.420846
  4.234234,   0.257597,   0.420504
  4.243243,   0.257496,   0.420164
  4.252252,   0.257396,   0.419824
  4.261261,   0.257296,   0.419485
  4.270270,   0.257196,   0.419147
  4.279279,   0.257097,   0.418810
  4.288288,   0.256997,   0.418475
  4.297297,   0.256898,   0.418139
  4.306306,   0.256800,   0.417805
  4.315315,   0.256701,   0.417472
  4.324324,   0.256603,   0.417140
  4.333333,   0.256505,   0.416808
  4.342342,   0.256407,   0.416478
  4.351351,   0.256310,   0.416148
  4.360360,   0.256212,   0.415819
  4.369369,   0.256115,   0.415491
  4.378378,   0.256018,   0.415164
  4.387387,   0.255922,   0.414838
  4.396396,   0.255826,   0.414513
  4.405405,   0.255729,   0.414189
  4.414414,   0.255634,   0.413865
  4.423423,   0.255538,   0.413543
  4.432432,   0.255443,   0.413221
  4.441441,   0.255348,   0.412900
  4.450450,   0.255253,   0.412580
  4.459459,   0.255158,   0.412260
  4.468468,   0.255064,   0.411942
  4.477477,   0.254969,   0.411625
  4.486486,   0.254875,   0.411308
  4.495495,   0.254782,   0.410992
  4.504505,   0.254688,   0.410677
  4.513514,   0.254595,   0.410363
  4.522523,   0.254502,   0.410049
  4.531532,   0.254409,   0.409737
  4.540541,   0.254316,   0.409425
  4.549550,   0.254224,   0.409114
  4.558559,   0.254132,   0.408804
  4.567568,   0.254040,   0.408494
  4.576577,   0.253948,   0.408186
  4.585586,   0.253857,   0.407878
  4.594595,   0.253765,   0.407571
  4.603604,   0.253674,   0.407265
  4.612613,   0.253583,   0.406959
  4.621622,   0.253493,   0.406655
  4.630631,   0.253402,   0.406351
  4.639640,   0.253312,   0.406048
  4.648649,   0.253222,   0.405745
  4.657658,   0.253132,   0.405444
  4.666667,   0.253043,   0.405143
  4.675676,   0.252954,   0.404843
  4.684685,   0.252864,   0.404544
  4.693694,   0.252775,   0.404245
  4.702703,   0.252687,   0.403947
  4.711712,   0.252598,   0.403650
  4.720721,   0.252510,   0.403354
  4.729730,   0.252422,   0.403059
  4.738739,   0.252334,   0.402764
  4.747748,   0.252246,   0.402470
  4.756757,   0.252159,   0.402177
  4.765766,   0.252071,   0.401884
  4.774775,   0.251984,   0.401592
  4.783784,   0.251898,   0.401301
  4.792793,   0.251811,   0.401011
  4.801802,   0.251724,   0.400721
  4.810811,   0.251638,   0.400432
  4.819820,   0.251552,   0.400144
  4.828829,   0.251466,   0.399856
  4.837838,   0.251380,   0.399569
  4.846847,   0.251295,   0.399283
  4.855856,   0.251210,   0.398998
  4.864865,   0.251125,   0.398713
  4.873874,   0.251040,   0.398429
  4.882883,   0.250955,   0.398145
  4.891892,   0.250870,   0.397863
  4.900901,   0.250786,   0.397581
  4.909910,   0.250702,   0.397299
  4.918919,   0.250618,   0.397019
  4.927928,   0.250534,   0.396739
  4.936937,   0.250451,   0.396460
  4.945946,   0.250367,   0.396181
  4.954955,   0.250284,   0.395903
  4.963964,   0.250201,   0.395626
  4.972973,   0.250118,   0.395349
  4.981982,   0.250035,   0.395073
  4.990991,   0.249953,   0.394798
  5.000000,   0.249871,   0.394523
  5.009009,   0.249789,   0.394249
  5.018018,   0.249707,   0.393976
  5.027027,   0.249625,   0.393703
  5.036036,   0.249543,   0.393431
  5.045045,   0.249462,   0.393160
  5.054054,   0.249381,   0.392889
  5.063063,   0.249300,   0.392619
  5.072072,   0.249219,   0.392350
  5.081081,   0.249138,   0.392081
  5.090090,   0.249058,   0.391812
  5.099099,   0.248977,   0.391545
  5.108108,   0.248897,   0.391278
  5.117117,   0.248817,   0.391012
  5.126126,   0.248737,   0.390746
