h[m], water_content[-], rel_perm[-]
  0.000000,   0.430000,   1.000000
  0.009009,   0.429401,   0.996621
  0.018018,   0.428245,   0.991419
  0.027027,   0.426724,   0.985287
  0.036036,   0.424919,   0.978531
  0.045045,   0.422883,   0.971332
  0.054054,   0.420658,   0.963814
  0.063063,   0.418275,   0.956065
  0.072072,   0.415763,   0.948157
  0.081081,   0.413145,   0.940144
  0.090090,   0.410441,   0.932070
  0.099099,   0.407669,   0.923971
  0.108108,   0.404845,   0.915876
  0.117117,   0.401981,   0.907809
  0.126126,   0.399090,   0.899789
  0.135135,   0.396182,   0.891833
  0.144144,   0.393266,   0.883954
  0.153153,   0.390350,   0.876161
  0.162162,   0.387441,   0.868465
  0.171171,   0.384544,   0.860870
  0.180180,   0.381666,   0.853383
  0.189189,   0.378809,   0.846007
  0.198198,   0.375979,   0.838746
  0.207207,   0.373178,   0.831602
  0.216216,   0.370408,   0.824575
  0.225225,   0.367672,   0.817667
  0.234234,   0.364972,   0.810878
  0.243243,   0.362309,   0.804207
  0.252252,   0.359684,   0.797654
  0.261261,   0.357098,   0.791219
  0.270270,   0.354552,   0.784898
  0.279279,   0.352046,   0.778692
  0.288288,   0.349581,   0.772599
  0.297297,   0.347156,   0.766616
  0.306306,   0.344771,   0.760743
  0.315315,   0.342427,   0.754976
  0.324324,   0.340124,   0.749315
  0.333333,   0.337860,   0.743757
  0.342342,   0.335635,   0.738299
  0.351351,   0.333449,   0.732941
  0.360360,   0.331302,   0.727679
  0.369369,   0.329193,   0.722512
  0.378378,   0.327120,   0.717437
  0.387387,   0.325085,   0.712453
  0.396396,   0.323086,   0.707558
  0.405405,   0.321122,   0.702748
  0.414414,   0.319193,   0.698024
  0.423423,   0.317298,   0.693381
  0.432432,   0.315436,   0.688819
  0.441441,   0.313608,   0.684336
  0.450450,   0.311811,   0.679929
  0.459459,   0.310045,   0.675597
  0.468468,   0.308311,   0.671339
  0.477477,   0.306606,   0.667151
  0.486486,   0.304931,   0.663034
  0.495495,   0.303285,   0.658984
  0.504505,   0.301667,   0.655001
  0.513514,   0.300076,   0.651083
  0.522523,   0.298513,   0.647228
  0.531532,   0.296975,   0.643435
  0.540541,   0.295463,   0.639703
  0.549550,   0.293977,   0.636029
  0.558559,   0.292515,   0.632413
  0.567568,   0.291077,   0.628854
  0.576577,   0.289662,   0.625349
  0.585586,   0.288271,   0.621898
  0.594595,   0.286901,   0.618499
  0.603604,   0.285554,   0.615152
  0.612613,   0.284228,   0.611855
  0.621622,   0.282923,   0.608607
  0.630631,   0.281639,   0.605407
  0.639640,   0.280374,   0.602253
  0.648649,   0.279129,   0.599146
  0.657658,   0.277903,   0.596083
  0.666667,   0.276696,   0.593064
  0.675676,   0.275507,   0.590087
  0.684685,   0.274336,   0.587153
  0.693694,   0.273183,   0.584259
  0.702703,   0.272046,   0.581406
  0.711712,   0.270927,   0.578592
  0.720721,   0.269823,   0.575816
  0.729730,   0.268736,   0.573078
  0.738739,   0.267664,   0.570377
  0.747748,   0.266608,   0.567712
  0.756757,   0.265567,   0.565082
  0.765766,   0.264540,   0.562486
  0.774775,   0.263528,   0.559925
  0.783784,   0.262530,   0.557396
  0.792793,   0.261545,   0.554901
  0.801802,   0.260574,   0.552437
  0.810811,   0.259617,   0.550004
  0.819820,   0.258672,   0.547601
  0.828829,   0.257740,   0.545229
  0.837838,   0.256820,   0.542886
  0.846847,   0.255913,   0.540572
  0.855856,   0.255017,   0.538286
  0.864865,   0.254133,   0.536028
  0.873874,   0.253261,   0.533798
  0.882883,   0.252399,   0.531593
  0.891892,   0.251549,   0.529415
  0.900901,   0.250710,   0.527263
  0.909910,   0.249881,   0.525136
  0.918919,   0.249063,   0.523033
  0.927928,   0.248254,   0.520955
  0.936937,   0.247456,   0.518901
  0.945946,   0.246667,   0.516870
  0.954955,   0.245888,   0.514862
  0.963964,   0.245119,   0.512876
  0.972973,   0.244359,   0.510913
  0.981982,   0.243608,   0.508971
  0.990991,   0.242865,   0.507051
  1.000000,   0.242132,   0.505152
  1.009009,   0.241407,   0.503273
  1.018018,   0.240690,   0.501415
  1.027027,   0.239982,   0.499576
  1.036036,   0.239282,   0.497758
  1.045045,   0.238590,   0.495958
  1.054054,   0.237906,   0.494177
  1.063063,   0.237229,   0.492415
  1.072072,   0.236560,   0.490672
  1.081081,   0.235899,   0.488946
  1.090090,   0.235244,   0.487238
  1.099099,   0.234597,   0.485547
  1.108108,   0.233957,   0.483874
  1.117117,   0.233324,   0.482217
  1.126126,   0.232698,   0.480577
  1.135135,   0.232078,   0.478953
  1.144144,   0.231465,   0.477345
  1.153153,   0.230859,   0.475753
  1.162162,   0.230259,   0.474176
  1.171171,   0.229665,   0.472615
  1.180180,   0.229077,   0.471069
  1.189189,   0.228496,   0.469538
  1.198198,   0.227920,   0.468021
  1.207207,   0.227350,   0.466518
  1.216216,   0.226786,   0.465030
  1.225225,   0.226228,   0.463556
  1.234234,   0.225675,   0.462095
  1.243243,   0.225128,   0.460648
  1.252252,   0.224586,   0.459214
  1.261261,   0.224050,   0.457793
  1.270270,   0.223519,   0.456385
  1.279279,   0.222993,   0.454990
  1.288288,   0.222472,   0.453608
  1.297297,   0.221956,   0.452237
  1.306306,   0.221445,   0.450879
  1.315315,   0.220939,   0.449533
  1.324324,   0.220437,   0.448199
  1.333333,   0.219941,   0.446877
  1.342342,   0.219449,   0.445565
  1.351351,   0.218961,   0.444266
  1.360360,   0.218478,   0.442977
  1.369369,   0.218000,   0.441700
  1.378378,   0.217526,   0.440433
  1.387387,   0.217056,   0.439177
  1.396396,   0.216591,   0.437932
  1.405405,   0.216129,   0.436697
  1.414414,   0.215672,   0.435472
  1.423423,   0.215219,   0.434257
  1.432432,   0.214770,   0.433053
  1.441441,   0.214325,   0.431858
  1.450450,   0.213884,   0.430673
  1.459459,   0.213446,   0.429498
  1.468468,   0.213013,   0.428332
  1.477477,   0.212583,   0.427176
  1.486486,   0.212157,   0.426029
  1.495495,   0.211734,   0.424890
  1.504505,   0.211315,   0.423761
  1.513514,   0.210900,   0.422641
  1.522523,   0.210488,   0.421530
  1.531532,   0.210079,   0.420427
  1.540541,   0.209674,   0.419333
  1.549550,   0.209273,   0.418247
  1.558559,   0.208874,   0.417169
  1.567568,   0.208479,   0.416100
  1.576577,   0.208087,   0.415039
  1.585586,   0.207699,   0.413986
  1.594595,   0.207313,   0.412941
  1.603604,   0.206931,   0.411903
  1.612613,   0.206551,   0.410874
  1.621622,   0.206175,   0.409852
  1.630631,   0.205802,   0.408837
  1.639640,   0.205431,   0.407830
  1.648649,   0.205064,   0.406830
  1.657658,   0.204699,   0.405838
  1.666667,   0.204337,   0.404853
  1.675676,   0.203978,   0.403875
  1.684685,   0.203622,   0.402904
  1.693694,   0.203268,   0.401940
  1.702703,   0.202918,   0.400983
  1.711712,   0.202569,   0.400032
  1.720721,   0.202224,   0.399088
  1.729730,   0.201881,   0.398151
  1.738739,   0.201541,   0.397221
  1.747748,   0.201203,   0.396296
  1.756757,   0.200868,   0.395379
  1.765766,   0.200535,   0.394467
  1.774775,   0.200204,   0.393562
  1.783784,   0.199877,   0.392663
  1.792793,   0.199551,   0.391770
  1.801802,   0.199228,   0.390884
  1.810811,   0.198907,   0.390003
  1.819820,   0.198588,   0.389128
  1.828829,   0.198272,   0.388259
  1.837838,   0.197958,   0.387396
  1.846847,   0.197646,   0.386538
  1.855856,   0.197337,   0.385686
  1.864865,   0.197029,   0.384840
  1.873874,   0.196724,   0.383999
  1.882883,   0.196421,   0.383164
  1.891892,   0.196120,   0.382334
  1.900901,   0.195821,   0.381509
  1.909910,   0.195524,   0.380690
  1.918919,   0.195230,   0.379876
  1.927928,   0.194937,   0.379067
  1.936937,   0.194646,   0.378264
  1.945946,   0.194357,   0.377465
  1.954955,   0.194070,   0.376672
  1.963964,   0.193785,   0.375883
  1.972973,   0.193502,   0.375100
  1.981982,   0.193221,   0.374321
  1.990991,   0.192942,   0.373547
  2.000000,   0.192664,   0.372778
  2.009009,   0.192389,   0.372014
  2.018018,   0.192115,   0.371254
  2.027027,   0.191843,   0.370499
  2.036036,   0.191573,   0.369748
  2.045045,   0.191304,   0.369002
  2.054054,   0.191037,   0.368261
  2.063063,   0.190772,   0.367524
  2.072072,   0.190509,   0.366791
  2.081081,   0.190247,   0.366063
  2.090090,   0.189987,   0.365339
  2.099099,   0.189729,   0.364620
  2.108108,   0.189472,   0.363904
  2.117117,   0.189217,   0.363193
  2.126126,   0.188963,   0.362486
  2.135135,   0.188711,   0.361783
  2.144144,   0.188461,   0.361085
  2.153153,   0.188212,   0.360390
  2.162162,   0.187965,   0.359699
  2.171171,   0.187719,   0.359012
  2.180180,   0.187475,   0.358329
  2.189189,   0.187232,   0.357650
  2.198198,   0.186991,   0.356975
  2.207207,   0.186751,   0.356304
  2.216216,   0.186512,   0.355636
  2.225225,   0.186275,   0.354972
  2.234234,   0.186040,   0.354312
  2.243243,   0.185806,   0.353656
  2.252252,   0.185573,   0.353003
  2.261261,   0.185342,   0.352354
  2.270270,   0.185111,   0.351708
  2.279279,   0.184883,   0.351066
  2.288288,   0.184655,   0.350428
  2.297297,   0.184429,   0.349793
  2.306306,   0.184205,   0.349161
  2.315315,   0.183981,   0.348533
  2.324324,   0.183759,   0.347908
  2.333333,   0.183538,   0.347287
  2.342342,   0.183319,   0.346669
  2.351351,   0.183100,   0.346054
  2.360360,   0.182883,   0.345442
  2.369369,   0.182667,   0.344834
  2.378378,   0.182453,   0.344229
  2.387387,   0.182239,   0.343627
  2.396396,   0.182027,   0.343028
  2.405405,   0.181816,   0.342433
  2.414414,   0.181606,   0.341840
  2.423423,   0.181397,   0.341251
  2.432432,   0.181190,   0.340665
  2.441441,   0.180983,   0.340081
  2.450450,   0.180778,   0.339501
  2.459459,   0.180574,   0.338923
  2.468468,   0.180371,   0.338349
  2.477477,   0.180169,   0.337777
  2.486486,   0.179968,   0.337209
  2.495495,   0.179768,   0.336643
  2.504505,   0.179569,   0.336080
  2.513514,   0.179372,   0.335520
  2.522523,   0.179175,   0.334963
  2.531532,   0.178979,   0.334408
  2.540541,   0.178785,   0.333857
  2.549550,   0.178591,   0.333308
  2.558559,   0.178399,   0.332761
  2.567568,   0.178208,   0.332218
  2.576577,   0.178017,   0.331677
  2.585586,   0.177828,   0.331139
  2.594595,   0.177639,   0.330603
  2.603604,   0.177452,   0.330070
  2.612613,   0.177265,   0.329539
  2.621622,   0.177080,   0.329012
  2.630631,   0.176895,   0.328486
  2.639640,   0.176711,   0.327963
  2.648649,   0.176529,   0.327443
  2.657658,   0.176347,   0.326925
  2.666667,   0.176166,   0.326410
  2.675676,   0.175986,   0.325897
  2.684685,   0.175807,   0.325386
  2.693694,   0.175629,   0.324878
  2.702703,   0.175451,   0.324372
  2.711712,   0.175275,   0.323869
  2.720721,   0.175100,   0.323368
  2.729730,   0.174925,   0.322869
  2.738739,   0.174751,   0.322373
  2.747748,   0.174578,   0.321879
  2.756757,   0.174406,   0.321387
  2.765766,   0.174235,   0.320897
  2.774775,   0.174064,   0.320410
  2.783784,   0.173895,   0.319925
  2.792793,   0.173726,   0.319442
  2.801802,   0.173558,   0.318961
  2.810811,   0.173391,   0.318483
  2.819820,   0.173225,   0.318007
  2.828829,   0.173059,   0.317532
  2.837838,   0.172895,   0.317060
  2.846847,   0.172731,   0.316590
  2.855856,   0.172568,   0.316123
  2.864865,   0.172405,   0.315657
  2.873874,   0.172244,   0.315193
  2.882883,   0.172083,   0.314731
  2.891892,   0.171923,   0.314272
  2.900901,   0.171763,   0.313814
  2.909910,   0.171605,   0.313359
  2.918919,   0.171447,   0.312905
  2.927928,   0.171290,   0.312453
  2.936937,   0.171133,   0.312004
  2.945946,   0.170978,   0.311556
  2.954955,   0.170823,   0.311110
  2.963964,   0.170668,   0.310666
  2.972973,   0.170515,   0.310224
  2.981982,   0.170362,   0.309784
  2.990991,   0.170210,   0.309346
  3.000000,   0.170058,   0.308910
  3.009009,   0.169908,   0.308475
  3.018018,   0.169757,   0.308043
  3.027027,   0.169608,   0.307612
  3.036036,   0.169459,   0.307183
  3.045045,   0.169311,   0.306756
  3.054054,   0.169164,   0.306330
  3.063063,   0.169017,   0.305907
  3.072072,   0.168871,   0.305485
  3.081081,   0.168725,   0.305065
  3.090090,   0.168581,   0.304646
  3.099099,   0.168436,   0.304230
  3.108108,   0.168293,   0.303815
  3.117117,   0.168150,   0.303402
  3.126126,   0.168008,   0.302990
  3.135135,   0.167866,   0.302580
  3.144144,   0.167725,   0.302172
  3.153153,   0.167584,   0.301766
  3.162162,   0.167444,   0.301361
  3.171171,   0.167305,   0.300958
  3.180180,   0.167166,   0.300556
  3.189189,   0.167028,   0.300156
  3.198198,   0.166891,   0.299758
  3.207207,   0.166754,   0.299361
  3.216216,   0.166618,   0.298966
  3.225225,   0.166482,   0.298572
  3.234234,   0.166347,   0.298180
  3.243243,   0.166212,   0.297790
  3.252252,   0.166078,   0.297401
  3.261261,   0.165945,   0.297013
  3.270270,   0.165812,   0.296627
  3.279279,   0.165679,   0.296243
  3.288288,   0.165548,   0.295860
  3.297297,   0.165416,   0.295479
  3.306306,   0.165286,   0.295099
  3.315315,   0.165155,   0.294720
  3.324324,   0.165026,   0.294344
  3.333333,   0.164897,   0.293968
  3.342342,   0.164768,   0.293594
  3.351351,   0.164640,   0.293221
  3.360360,   0.164513,   0.292850
  3.369369,   0.164385,   0.292480
  3.378378,   0.164259,   0.292112
  3.387387,   0.164133,   0.291745
  3.396396,   0.164007,   0.291379
  3.405405,   0.163883,   0.291015
  3.414414,   0.163758,   0.290652
  3.423423,   0.163634,   0.290291
  3.432432,   0.163511,   0.289931
  3.441441,   0.163388,   0.289572
  3.450450,   0.163265,   0.289215
  3.459459,   0.163143,   0.288858
  3.468468,   0.163021,   0.288504
  3.477477,   0.162900,   0.288150
  3.486486,   0.162780,   0.287798
  3.495495,   0.162660,   0.287447
  3.504505,   0.162540,   0.287098
  3.513514,   0.162421,   0.286749
  3.522523,   0.162302,   0.286402
  3.531532,   0.162184,   0.286057
  3.540541,   0.162066,   0.285712
  3.549550,   0.161949,   0.285369
  3.558559,   0.161832,   0.285027
  3.567568,   0.161715,   0.284686
  3.576577,   0.161599,   0.284347
  3.585586,   0.161484,   0.284009
  3.594595,   0.161369,   0.283671
  3.603604,   0.161254,   0.283336
  3.612613,   0.161140,   0.283001
  3.621622,   0.161026,   0.282667
  3.630631,   0.160913,   0.282335
  3.639640,   0.160800,   0.282004
  3.648649,   0.160687,   0.281674
  3.657658,   0.160575,   0.281345
  3.666667,   0.160463,   0.281018
  3.675676,   0.160352,   0.280691
  3.684685,   0.160241,   0.280366
  3.693694,   0.160131,   0.280042
  3.702703,   0.160021,   0.279719
  3.711712,   0.159911,   0.279397
  3.720721,   0.159802,   0.279076
  3.729730,   0.159693,   0.278757
  3.738739,   0.159585,   0.278438
  3.747748,   0.159477,   0.278121
  3.756757,   0.159369,   0.277804
  3.765766,   0.159262,   0.277489
  3.774775,   0.159155,   0.277175
  3.783784,   0.159049,   0.276862
  3.792793,   0.158943,   0.276549
  3.801802,   0.158837,   0.276238
  3.810811,   0.158732,   0.275929
  3.819820,   0.158627,   0.275620
  3.828829,   0.158522,   0.275312
  3.837838,   0.158418,   0.275005
  3.846847,   0.158314,   0.274699
  3.855856,   0.158211,   0.274394
  3.864865,   0.158108,   0.274091
  3.873874,   0.158005,   0.273788
  3.882883,   0.157903,   0.273486
  3.891892,   0.157801,   0.273186
  3.900901,   0.157699,   0.272886
  3.909910,   0.157598,   0.272587
  3.918919,   0.157497,   0.272290
  3.927928,   0.157396,   0.271993
  3.936937,   0.157296,   0.271697
  3.945946,   0.157196,   0.271402
  3.954955,   0.157097,   0.271109
  3.963964,   0.156998,   0.270816
  3.972973,   0.156899,   0.270524
  3.981982,   0.156800,   0.270233
  3.990991,   0.156702,   0.269943
  4.000000,   0.156604,   0.269654
  4.009009,   0.156507,   0.269366
  4.018018,   0.156410,   0.269078
  4.027027,   0.156313,   0.268792
  4.036036,   0.156217,   0.268507
  4.045045,   0.156121,   0.268222
  4.054054,   0.156025,   0.267939
  4.063063,   0.155929,   0.267656
  4.072072,   0.155834,   0.267375
  4.081081,   0.155739,   0.267094
  4.090090,   0.155645,   0.266814
  4.099099,   0.155551,   0.266535
  4.108108,   0.155457,   0.266257
  4.117117,   0.155363,   0.265979
  4.126126,   0.155270,   0.265703
  4.135135,   0.155177,   0.265428
  4.144144,   0.155084,   0.265153
  4.153153,   0.154992,   0.264879
  4.162162,   0.154900,   0.264606
  4.171171,   0.154808,   0.264334
  4.180180,   0.154717,   0.264063
  4.189189,   0.154626,   0.263792
  4.198198,   0.154535,   0.263523
  4.207207,   0.154444,   0.263254
  4.216216,   0.154354,   0.262986
  4.225225,   0.154264,   0.262719
  4.234234,   0.154175,   0.262453
  4.243243,   0.154085,   0.262187
  4.252252,   0.153996,   0.261923
  4.261261,   0.153908,   0.261659
  4.270270,   0.153819,   0.261396
  4.279279,   0.153731,   0.261134
  4.288288,   0.153643,   0.260872
  4.297297,   0.153555,   0.260612
  4.306306,   0.153468,   0.260352
  4.315315,   0.153381,   0.260093
  4.324324,   0.153294,   0.259834
  4.333333,   0.153208,   0.259577
  4.342342,   0.153121,   0.259320
  4.351351,   0.153035,   0.259064
  4.360360,   0.152950,   0.258809
  4.369369,   0.152864,   0.258555
  4.378378,   0.152779,   0.258301
  4.387387,   0.152694,   0.258048
  4.396396,   0.152610,   0.257796
  4.405405,   0.152525,   0.257544
  4.414414,   0.152441,   0.257294
  4.423423,   0.152357,   0.257044
  4.432432,   0.152274,   0.256794
  4.441441,   0.152191,   0.256546
  4.450450,   0.152108,   0.256298
  4.459459,   0.152025,   0.256051
  4.468468,   0.151942,   0.255805
  4.477477,   0.151860,   0.255559
  4.486486,   0.151778,   0.255314
  4.495495,   0.151696,   0.255070
  4.504505,   0.151615,   0.254827
  4.513514,   0.151533,   0.254584
  4.522523,   0.151452,   0.254342
  4.531532,   0.151372,   0.254101
  4.540541,   0.151291,   0.253860
  4.549550,   0.151211,   0.253620
  4.558559,   0.151131,   0.253381
  4.567568,   0.151051,   0.253142
  4.576577,   0.150971,   0.252904
  4.585586,   0.150892,   0.252667
  4.594595,   0.150813,   0.252430
  4.603604,   0.150734,   0.252194
  4.612613,   0.150655,   0.251959
  4.621622,   0.150577,   0.251725
  4.630631,   0.150499,   0.251491
  4.639640,   0.150421,   0.251257
  4.648649,   0.150343,   0.251025
  4.657658,   0.150266,   0.250793
  4.666667,   0.150189,   0.250562
  4.675676,   0.150112,   0.250331
  4.684685,   0.150035,   0.250101
  4.693694,   0.149959,   0.249871
  4.702703,   0.149882,   0.249643
  4.711712,   0.149806,   0.249415
  4.720721,   0.149730,   0.249187
  4.729730,   0.149655,   0.248960
  4.738739,   0.149579,   0.248734
  4.747748,   0.149504,   0.248509
  4.756757,   0.149429,   0.248284
  4.765766,   0.149354,   0.248059
  4.774775,   0.149280,   0.247835
  4.783784,   0.149205,   0.247612
  4.792793,   0.149131,   0.247390
  4.801802,   0.149057,   0.247168
  4.810811,   0.148984,   0.246947
  4.819820,   0.148910,   0.246726
  4.828829,   0.148837,   0.246506
  4.837838,   0.148764,   0.246286
  4.846847,   0.148691,   0.246067
  4.855856,   0.148618,   0.245849
  4.864865,   0.148546,   0.245631
  4.873874,   0.148474,   0.245414
  4.882883,   0.148402,   0.245197
  4.891892,   0.148330,   0.244981
  4.900901,   0.148258,   0.244766
  4.909910,   0.148187,   0.244551
  4.918919,   0.148116,   0.244337
  4.927928,   0.148045,   0.244123
  4.936937,   0.147974,   0.243910
  4.945946,   0.147903,   0.243697
  4.954955,   0.147833,   0.243485
  4.963964,   0.147763,   0.243274
  4.972973,   0.147693,   0.243063
  4.981982,   0.147623,   0.242853
  4.990991,   0.147553,   0.242643
  5.000000,   0.147484,   0.242434
  5.009009,   0.147414,   0.242225
  5.018018,   0.147345,   0.242017
  5.027027,   0.147277,   0.241809
  5.036036,   0.147208,   0.241602
  5.045045,   0.147139,   0.241395
  5.054054,   0.147071,   0.241189
  5.063063,   0.147003,   0.240984
  5.072072,   0.146935,   0.240779
  5.081081,   0.146867,   0.240575
  5.090090,   0.146800,   0.240371
  5.099099,   0.146732,   0.240167
  5.108108,   0.146665,   0.239964
  5.117117,   0.146598,   0.239762
  5.126126,   0.146531,   0.239560
