h[m], water_content[-], rel_perm[-]
  0.000000,   0.430000,   1.000000
  0.009009,   0.429401,   0.997347
  0.018018,   0.428245,   0.992234
  0.027027,   0.426724,   0.985519
  0.036036,   0.424919,   0.977572
  0.045045,   0.422883,   0.968639
  0.054054,   0.420658,   0.958906
  0.063063,   0.418275,   0.948526
  0.072072,   0.415763,   0.937625
  0.081081,   0.413145,   0.926312
  0.090090,   0.410441,   0.914679
  0.099099,   0.407669,   0.902809
  0.108108,   0.404845,   0.890770
  0.117117,   0.401981,   0.878625
  0.126126,   0.399090,   0.866424
  0.135135,   0.396182,   0.854213
  0.144144,   0.393266,   0.842033
  0.153153,   0.390350,   0.829915
  0.162162,   0.387441,   0.817888
  0.171171,   0.384544,   0.805977
  0.180180,   0.381666,   0.794202
  0.189189,   0.378809,   0.782579
  0.198198,   0.375979,   0.771122
  0.207207,   0.373178,   0.759842
  0.216216,   0.370408,   0.748749
  0.225225,   0.367672,   0.737849
  0.234234,   0.364972,   0.727148
  0.243243,   0.362309,   0.716648
  0.252252,   0.359684,   0.706353
  0.261261,   0.357098,   0.696264
  0.270270,   0.354552,   0.686381
  0.279279,   0.352046,   0.676703
  0.288288,   0.349581,   0.667230
  0.297297,   0.347156,   0.657960
  0.306306,   0.344771,   0.648890
  0.315315,   0.342427,   0.640017
  0.324324,   0.340124,   0.631340
  0.333333,   0.337860,   0.622853
  0.342342,   0.335635,   0.614555
  0.351351,   0.333449,   0.606441
  0.360360,   0.331302,   0.598507
  0.369369,   0.329193,   0.590750
  0.378378,   0.327120,   0.583166
  0.387387,   0.325085,   0.575750
  0.396396,   0.323086,   0.568499
  0.405405,   0.321122,   0.561409
  0.414414,   0.319193,   0.554475
  0.423423,   0.317298,   0.547694
  0.432432,   0.315436,   0.541062
  0.441441,   0.313608,   0.534575
  0.450450,   0.311811,   0.528229
  0.459459,   0.310045,   0.522020
  0.468468,   0.308311,   0.515946
  0.477477,   0.306606,   0.510001
  0.486486,   0.304931,   0.504184
  0.495495,   0.303285,   0.498489
  0.504505,   0.301667,   0.492915
  0.513514,   0.300076,   0.487457
  0.522523,   0.298513,   0.482114
  0.531532,   0.296975,   0.476880
  0.540541,   0.295463,   0.471754
  0.549550,   0.293977,   0.466733
  0.558559,   0.292515,   0.461814
  0.567568,   0.291077,   0.456993
  0.576577,   0.289662,   0.452269
  0.585586,   0.288271,   0.447639
  0.594595,   0.286901,   0.443100
  0.603604,   0.285554,   0.438650
  0.612613,   0.284228,   0.434287
  0.621622,   0.282923,   0.430007
  0.630631,   0.281639,   0.425810
  0.639640,   0.280374,   0.421692
  0.648649,   0.279129,   0.417652
  0.657658,   0.277903,   0.413688
  0.666667,   0.276696,   0.409798
  0.675676,   0.275507,   0.405979
  0.684685,   0.274336,   0.402230
  0.693694,   0.273183,   0.398550
  0.702703,   0.272046,   0.394936
  0.711712,   0.270927,   0.391386
  0.720721,   0.269823,   0.387900
  0.729730,   0.268736,   0.384476
  0.738739,   0.267664,   0.381111
  0.747748,   0.266608,   0.377805
  0.756757,   0.265567,   0.374556
  0.765766,   0.264540,   0.371363
  0.774775,   0.263528,   0.368224
  0.783784,   0.262530,   0.365138
  0.792793,   0.261545,   0.362104
  0.801802,   0.260574,   0.359120
  0.810811,   0.259617,   0.356186
  0.819820,   0.258672,   0.353299
  0.828829,   0.257740,   0.350460
  0.837838,   0.256820,   0.347667
  0.846847,   0.255913,   0.344918
  0.855856,   0.255017,   0.342213
  0.864865,   0.254133,   0.339551
  0.873874,   0.253261,   0.336931
  0.882883,   0.252399,   0.334352
  0.891892,   0.251549,   0.331813
  0.900901,   0.250710,   0.329312
  0.909910,   0.249881,   0.326850
  0.918919,   0.249063,   0.324426
  0.927928,   0.248254,   0.322037
  0.936937,   0.247456,   0.319685
  0.945946,   0.246667,   0.317367
  0.954955,   0.245888,   0.315084
  0.963964,   0.245119,   0.312834
  0.972973,   0.244359,   0.310617
  0.981982,   0.243608,   0.308431
  0.990991,   0.242865,   0.306277
  1.000000,   0.242132,   0.304154
  1.009009,   0.241407,   0.302061
  1.018018,   0.240690,   0.299998
  1.027027,   0.239982,   0.297963
  1.036036,   0.239282,   0.295956
  1.045045,   0.238590,   0.293977
  1.054054,   0.237906,   0.292026
  1.063063,   0.237229,   0.290101
  1.072072,   0.236560,   0.288201
  1.081081,   0.235899,   0.286328
  1.090090,   0.235244,   0.284479
  1.099099,   0.234597,   0.282655
  1.108108,   0.233957,   0.280855
  1.117117,   0.233324,   0.279078
  1.126126,   0.232698,   0.277325
  1.135135,   0.232078,   0.275594
  1.144144,   0.231465,   0.273886
  1.153153,   0.230859,   0.272199
  1.162162,   0.230259,   0.270534
  1.171171,   0.229665,   0.268890
  1.180180,   0.229077,   0.267266
  1.189189,   0.228496,   0.265663
  1.198198,   0.227920,   0.264079
  1.207207,   0.227350,   0.262515
  1.216216,   0.226786,   0.260971
  1.225225,   0.226228,   0.259445
  1.234234,   0.225675,   0.257937
  1.243243,   0.225128,   0.256448
  1.252252,   0.224586,   0.254976
  1.261261,   0.224050,   0.253522
  1.270270,   0.223519,   0.252085
  1.279279,   0.222993,   0.250665
  1.288288,   0.222472,   0.249261
  1.297297,   0.221956,   0.247874
  1.306306,   0.221445,   0.246503
  1.315315,   0.220939,   0.245147
  1.324324,   0.220437,   0.243807
  1.333333,   0.219941,   0.242482
  1.342342,   0.219449,   0.241172
  1.351351,   0.218961,   0.239877
  1.360360,   0.218478,   0.238597
  1.369369,   0.218000,   0.237330
  1.378378,   0.217526,   0.236078
  1.387387,   0.217056,   0.234839
  1.396396,   0.216591,   0.233614
  1.405405,   0.216129,   0.232402
  1.414414,   0.215672,   0.231203
  1.423423,   0.215219,   0.230017
  1.432432,   0.214770,   0.228844
  1.441441,   0.214325,   0.227683
  1.450450,   0.213884,   0.226534
  1.459459,   0.213446,   0.225398
  1.468468,   0.213013,   0.224273
  1.477477,   0.212583,   0.223160
  1.486486,   0.212157,   0.222059
  1.495495,   0.211734,   0.220969
  1.504505,   0.211315,   0.219890
  1.513514,   0.210900,   0.218822
  1.522523,   0.210488,   0.217765
  1.531532,   0.210079,   0.216719
  1.540541,   0.209674,   0.215683
  1.549550,   0.209273,   0.214657
  1.558559,   0.208874,   0.213642
  1.567568,   0.208479,   0.212637
  1.576577,   0.208087,   0.211641
  1.585586,   0.207699,   0.210656
  1.594595,   0.207313,   0.209680
  1.603604,   0.206931,   0.208713
  1.612613,   0.206551,   0.207756
  1.621622,   0.206175,   0.206808
  1.630631,   0.205802,   0.205869
  1.639640,   0.205431,   0.204938
  1.648649,   0.205064,   0.204017
  1.657658,   0.204699,   0.203105
  1.666667,   0.204337,   0.202200
  1.675676,   0.203978,   0.201305
  1.684685,   0.203622,   0.200417
  1.693694,   0.203268,   0.199538
  1.702703,   0.202918,   0.198667
  1.711712,   0.202569,   0.197804
  1.720721,   0.202224,   0.196949
  1.729730,   0.201881,   0.196102
  1.738739,   0.201541,   0.195262
  1.747748,   0.201203,   0.194430
  1.756757,   0.200868,   0.193605
  1.765766,   0.200535,   0.192787
  1.774775,   0.200204,   0.191977
  1.783784,   0.199877,   0.191174
  1.792793,   0.199551,   0.190378
  1.801802,   0.199228,   0.189589
  1.810811,   0.198907,   0.188807
  1.819820,   0.198588,   0.188031
  1.828829,   0.198272,   0.187262
  1.837838,   0.197958,   0.186500
  1.846847,   0.197646,   0.185745
  1.855856,   0.197337,   0.184996
  1.864865,   0.197029,   0.184253
  1.873874,   0.196724,   0.183516
  1.882883,   0.196421,   0.182786
  1.891892,   0.196120,   0.182062
  1.900901,   0.195821,   0.181343
  1.909910,   0.195524,   0.180631
  1.918919,   0.195230,   0.179925
  1.927928,   0.194937,   0.179224
  1.936937,   0.194646,   0.178529
  1.945946,   0.194357,   0.177840
  1.954955,   0.194070,   0.177157
  1.963964,   0.193785,   0.176479
  1.972973,   0.193502,   0.175806
  1.981982,   0.193221,   0.175139
  1.990991,   0.192942,   0.174477
  2.000000,   0.192664,   0.173821
  2.009009,   0.192389,   0.173169
  2.018018,   0.192115,   0.172523
  2.027027,   0.191843,   0.171882
  2.036036,   0.191573,   0.171246
  2.045045,   0.191304,   0.170615
  2.054054,   0.191037,   0.169988
  2.063063,   0.190772,   0.169367
  2.072072,   0.190509,   0.168750
  2.081081,   0.190247,   0.168139
  2.090090,   0.189987,   0.167531
  2.099099,   0.189729,   0.166929
  2.108108,   0.189472,   0.166331
  2.117117,   0.189217,   0.165737
  2.126126,   0.188963,   0.165148
  2.135135,   0.188711,   0.164564
  2.144144,   0.188461,   0.163983
  2.153153,   0.188212,   0.163408
  2.162162,   0.187965,   0.162836
  2.171171,   0.187719,   0.162268
  2.180180,   0.187475,   0.161705
  2.189189,   0.187232,   0.161146
  2.198198,   0.186991,   0.160591
  2.207207,   0.186751,   0.160040
  2.216216,   0.186512,   0.159493
  2.225225,   0.186275,   0.158950
  2.234234,   0.186040,   0.158411
  2.243243,   0.185806,   0.157875
  2.252252,   0.185573,   0.157344
  2.261261,   0.185342,   0.156816
  2.270270,   0.185111,   0.156292
  2.279279,   0.184883,   0.155772
  2.288288,   0.184655,   0.155255
  2.297297,   0.184429,   0.154742
  2.306306,   0.184205,   0.154233
  2.315315,   0.183981,   0.153727
  2.324324,   0.183759,   0.153225
  2.333333,   0.183538,   0.152726
  2.342342,   0.183319,   0.152230
  2.351351,   0.183100,   0.151738
  2.360360,   0.182883,   0.151250
  2.369369,   0.182667,   0.150764
  2.378378,   0.182453,   0.150282
  2.387387,   0.182239,   0.149803
  2.396396,   0.182027,   0.149328
  2.405405,   0.181816,   0.148855
  2.414414,   0.181606,   0.148386
  2.423423,   0.181397,   0.147920
  2.432432,   0.181190,   0.147457
  2.441441,   0.180983,   0.146997
  2.450450,   0.180778,   0.146540
  2.459459,   0.180574,   0.146086
  2.468468,   0.180371,   0.145635
  2.477477,   0.180169,   0.145187
  2.486486,   0.179968,   0.144742
  2.495495,   0.179768,   0.144300
  2.504505,   0.179569,   0.143861
  2.513514,   0.179372,   0.143424
  2.522523,   0.179175,   0.142991
  2.531532,   0.178979,   0.142560
  2.540541,   0.178785,   0.142132
  2.549550,   0.178591,   0.141706
  2.558559,   0.178399,   0.141283
  2.567568,   0.178208,   0.140863
  2.576577,   0.178017,   0.140446
  2.585586,   0.177828,   0.140031
  2.594595,   0.177639,   0.139619
  2.603604,   0.177452,   0.139209
  2.612613,   0.177265,   0.138802
  2.621622,   0.177080,   0.138398
  2.630631,   0.176895,   0.137996
  2.639640,   0.176711,   0.137596
  2.648649,   0.176529,   0.137199
  2.657658,   0.176347,   0.136804
  2.666667,   0.176166,   0.136412
  2.675676,   0.175986,   0.136022
  2.684685,   0.175807,   0.135634
  2.693694,   0.175629,   0.135249
  2.702703,   0.175451,   0.134866
  2.711712,   0.175275,   0.134485
  2.720721,   0.175100,   0.134107
  2.729730,   0.174925,   0.133731
  2.738739,   0.174751,   0.133357
  2.747748,   0.174578,   0.132986
  2.756757,   0.174406,   0.132616
  2.765766,   0.174235,   0.132249
  2.774775,   0.174064,   0.131884
  2.783784,   0.173895,   0.131521
  2.792793,   0.173726,   0.131160
  2.801802,   0.173558,   0.130801
  2.810811,   0.173391,   0.130445
  2.819820,   0.173225,   0.130090
  2.828829,   0.173059,   0.129737
  2.837838,   0.172895,   0.129387
  2.846847,   0.172731,   0.129038
  2.855856,   0.172568,   0.128692
  2.864865,   0.172405,   0.128347
  2.873874,   0.172244,   0.128005
  2.882883,   0.172083,   0.127664
  2.891892,   0.171923,   0.127325
  2.900901,   0.171763,   0.126989
  2.909910,   0.171605,   0.126654
  2.918919,   0.171447,   0.126321
  2.927928,   0.171290,   0.125989
  2.936937,   0.171133,   0.125660
  2.945946,   0.170978,   0.125332
  2.954955,   0.170823,   0.125007
  2.963964,   0.170668,   0.124683
  2.972973,   0.170515,   0.124361
  2.981982,   0.170362,   0.124040
  2.990991,   0.170210,   0.123722
  3.000000,   0.170058,   0.123405
  3.009009,   0.169908,   0.123090
  3.018018,   0.169757,   0.122776
  3.027027,   0.169608,   0.122464
  3.036036,   0.169459,   0.122154
  3.045045,   0.169311,   0.121846
  3.054054,   0.169164,   0.121539
  3.063063,   0.169017,   0.121234
  3.072072,   0.168871,   0.120930
  3.081081,   0.168725,   0.120629
  3.090090,   0.168581,   0.120328
  3.099099,   0.168436,   0.120030
  3.108108,   0.168293,   0.119733
  3.117117,   0.168150,   0.119437
  3.126126,   0.168008,   0.119143
  3.135135,   0.167866,   0.118850
  3.144144,   0.167725,   0.118560
  3.153153,   0.167584,   0.118270
  3.162162,   0.167444,   0.117982
  3.171171,   0.167305,   0.117696
  3.180180,   0.167166,   0.117411
  3.189189,   0.167028,   0.117127
  3.198198,   0.166891,   0.116845
  3.207207,   0.166754,   0.116565
  3.216216,   0.166618,   0.116285
  3.225225,   0.166482,   0.116008
  3.234234,   0.166347,   0.115731
  3.243243,   0.166212,   0.115456
  3.252252,   0.166078,   0.115183
  3.261261,   0.165945,   0.114911
  3.270270,   0.165812,   0.114640
  3.279279,   0.165679,   0.114370
  3.288288,   0.165548,   0.114102
  3.297297,   0.165416,   0.113836
  3.306306,   0.165286,   0.113570
  3.315315,   0.165155,   0.113306
  3.324324,   0.165026,   0.113043
  3.333333,   0.164897,   0.112782
  3.342342,   0.164768,   0.112521
  3.351351,   0.164640,   0.112262
  3.360360,   0.164513,   0.112005
  3.369369,   0.164385,   0.111748
  3.378378,   0.164259,   0.111493
  3.387387,   0.164133,   0.111239
  3.396396,   0.164007,   0.110986
  3.405405,   0.163883,   0.110735
  3.414414,   0.163758,   0.110485
  3.423423,   0.163634,   0.110236
  3.432432,   0.163511,   0.109988
  3.441441,   0.163388,   0.109741
  3.450450,   0.163265,   0.109495
  3.459459,   0.163143,   0.109251
  3.468468,   0.163021,   0.109008
  3.477477,   0.162900,   0.108766
  3.486486,   0.162780,   0.108525
  3.495495,   0.162660,   0.108285
  3.504505,   0.162540,   0.108047
  3.513514,   0.162421,   0.107809
  3.522523,   0.162302,   0.107573
  3.531532,   0.162184,   0.107337
  3.540541,   0.162066,   0.107103
  3.549550,   0.161949,   0.106870
  3.558559,   0.161832,   0.106638
  3.567568,   0.161715,   0.106407
  3.576577,   0.161599,   0.106177
  3.585586,   0.161484,   0.105948
  3.594595,   0.161369,   0.105720
  3.603604,   0.161254,   0.105494
  3.612613,   0.161140,   0.105268
  3.621622,   0.161026,   0.105043
  3.630631,   0.160913,   0.104819
  3.639640,   0.160800,   0.104597
  3.648649,   0.160687,   0.104375
  3.657658,   0.160575,   0.104154
  3.666667,   0.160463,   0.103935
  3.675676,   0.160352,   0.103716
  3.684685,   0.160241,   0.103498
  3.693694,   0.160131,   0.103282
  3.702703,   0.160021,   0.103066
  3.711712,   0.159911,   0.102851
  3.720721,   0.159802,   0.102637
  3.729730,   0.159693,   0.102424
  3.738739,   0.159585,   0.102212
  3.747748,   0.159477,   0.102001
  3.756757,   0.159369,   0.101791
  3.765766,   0.159262,   0.101582
  3.774775,   0.159155,   0.101374
  3.783784,   0.159049,   0.101166
  3.792793,   0.158943,   0.100960
  3.801802,   0.158837,   0.100754
  3.810811,   0.158732,   0.100550
  3.819820,   0.158627,   0.100346
  3.828829,   0.158522,   0.100143
  3.837838,   0.158418,   0.099941
  3.846847,   0.158314,   0.099740
  3.855856,   0.158211,   0.099540
  3.864865,   0.158108,   0.099340
  3.873874,   0.158005,   0.099142
  3.882883,   0.157903,   0.098944
  3.891892,   0.157801,   0.098747
  3.900901,   0.157699,   0.098551
  3.909910,   0.157598,   0.098356
  3.918919,   0.157497,   0.098161
  3.927928,   0.157396,   0.097968
  3.936937,   0.157296,   0.097775
  3.945946,   0.157196,   0.097583
  3.954955,   0.157097,   0.097392
  3.963964,   0.156998,   0.097201
  3.972973,   0.156899,   0.097012
  3.981982,   0.156800,   0.096823
  3.990991,   0.156702,   0.096635
  4.000000,   0.156604,   0.096448
  4.009009,   0.156507,   0.096261
  4.018018,   0.156410,   0.096075
  4.027027,   0.156313,   0.095890
  4.036036,   0.156217,   0.095706
  4.045045,   0.156121,   0.095523
  4.054054,   0.156025,   0.095340
  4.063063,   0.155929,   0.095158
  4.072072,   0.155834,   0.094977
  4.081081,   0.155739,   0.094797
  4.090090,   0.155645,   0.094617
  4.099099,   0.155551,   0.094438
  4.108108,   0.155457,   0.094260
  4.117117,   0.155363,   0.094082
  4.126126,   0.155270,   0.093905
  4.135135,   0.155177,   0.093729
  4.144144,   0.155084,   0.093554
  4.153153,   0.154992,   0.093379
  4.162162,   0.154900,   0.093205
  4.171171,   0.154808,   0.093031
  4.180180,   0.154717,   0.092859
  4.189189,   0.154626,   0.092687
  4.198198,   0.154535,   0.092516
  4.207207,   0.154444,   0.092345
  4.216216,   0.154354,   0.092175
  4.225225,   0.154264,   0.092006
  4.234234,   0.154175,   0.091837
  4.243243,   0.154085,   0.091669
  4.252252,   0.153996,   0.091502
  4.261261,   0.153908,   0.091335
  4.270270,   0.153819,   0.091169
  4.279279,   0.153731,   0.091004
  4.288288,   0.153643,   0.090839
  4.297297,   0.153555,   0.090675
  4.306306,   0.153468,   0.090511
  4.315315,   0.153381,   0.090349
  4.324324,   0.153294,   0.090186
  4.333333,   0.153208,   0.090025
  4.342342,   0.153121,   0.089864
  4.351351,   0.153035,   0.089703
  4.360360,   0.152950,   0.089544
  4.369369,   0.152864,   0.089384
  4.378378,   0.152779,   0.089226
  4.387387,   0.152694,   0.089068
  4.396396,   0.152610,   0.088911
  4.405405,   0.152525,   0.088754
  4.414414,   0.152441,   0.088598
  4.423423,   0.152357,   0.088442
  4.432432,   0.152274,   0.088287
  4.441441,   0.152191,   0.088133
  4.450450,   0.152108,   0.087979
  4.459459,   0.152025,   0.087826
  4.468468,   0.151942,   0.087673
  4.477477,   0.151860,   0.087521
  4.486486,   0.151778,   0.087369
  4.495495,   0.151696,   0.087218
  4.504505,   0.151615,   0.087068
  4.513514,   0.151533,   0.086918
  4.522523,   0.151452,   0.086768
  4.531532,   0.151372,   0.086620
  4.540541,   0.151291,   0.086471
  4.549550,   0.151211,   0.086324
  4.558559,   0.151131,   0.086177
  4.567568,   0.151051,   0.086030
  4.576577,   0.150971,   0.085884
  4.585586,   0.150892,   0.085738
  4.594595,   0.150813,   0.085593
  4.603604,   0.150734,   0.085449
  4.612613,   0.150655,   0.085305
  4.621622,   0.150577,   0.085161
  4.630631,   0.150499,   0.085018
  4.639640,   0.150421,   0.084876
  4.648649,   0.150343,   0.084734
  4.657658,   0.150266,   0.084592
  4.666667,   0.150189,   0.084451
  4.675676,   0.150112,   0.084311
  4.684685,   0.150035,   0.084171
  4.693694,   0.149959,   0.084031
  4.702703,   0.149882,   0.083892
  4.711712,   0.149806,   0.083754
  4.720721,   0.149730,   0.083616
  4.729730,   0.149655,   0.083478
  4.738739,   0.149579,   0.083341
  4.747748,   0.149504,   0.083205
  4.756757,   0.149429,   0.083069
  4.765766,   0.149354,   0.082933
  4.774775,   0.149280,   0.082798
  4.783784,   0.149205,   0.082663
  4.792793,   0.149131,   0.082529
  4.801802,   0.149057,   0.082396
  4.810811,   0.148984,   0.082262
  4.819820,   0.148910,   0.082130
  4.828829,   0.148837,   0.081997
  4.837838,   0.148764,   0.081865
  4.846847,   0.148691,   0.081734
  4.855856,   0.148618,   0.081603
  4.864865,   0.148546,   0.081472
  4.873874,   0.148474,   0.081342
  4.882883,   0.148402,   0.081213
  4.891892,   0.148330,   0.081083
  4.900901,   0.148258,   0.080955
  4.909910,   0.148187,   0.080826
  4.918919,   0.148116,   0.080698
  4.927928,   0.148045,   0.080571
  4.936937,   0.147974,   0.080444
  4.945946,   0.147903,   0.080317
  4.954955,   0.147833,   0.080191
  4.963964,   0.147763,   0.080065
  4.972973,   0.147693,   0.079940
  4.981982,   0.147623,   0.079815
  4.990991,   0.147553,   0.079691
  5.000000,   0.147484,   0.079567
  5.009009,   0.147414,   0.079443
  5.018018,   0.147345,   0.079320
  5.027027,   0.147277,   0.079197
  5.036036,   0.147208,   0.079074
  5.045045,   0.147139,   0.078952
  5.054054,   0.147071,   0.078831
  5.063063,   0.147003,   0.078709
  5.072072,   0.146935,   0.078589
  5.081081,   0.146867,   0.078468
  5.090090,   0.146800,   0.078348
  5.099099,   0.146732,   0.078228
  5.108108,   0.146665,   0.078109
  5.117117,   0.146598,   0.077990
  5.126126,   0.146531,   0.077872
