h[m], water_content[-], rel_perm[-]
  0.000000,   0.380000,   1.000000
  0.009009,   0.379462,   0.997746
  0.018018,   0.378747,   0.994914
  0.027027,   0.377956,   0.991851
  0.036036,   0.377116,   0.988652
  0.045045,   0.376243,   0.985368
  0.054054,   0.375347,   0.982029
  0.063063,   0.374436,   0.978659
  0.072072,   0.373513,   0.975271
  0.081081,   0.372584,   0.971880
  0.090090,   0.371651,   0.968492
  0.099099,   0.370717,   0.965117
  0.108108,   0.369784,   0.961758
  0.117117,   0.368853,   0.958421
  0.126126,   0.367927,   0.955110
  0.135135,   0.367005,   0.951827
  0.144144,   0.366089,   0.948574
  0.153153,   0.365181,   0.945354
  0.162162,   0.364279,   0.942167
  0.171171,   0.363385,   0.939015
  0.180180,   0.362500,   0.935898
  0.189189,   0.361623,   0.932818
  0.198198,   0.360755,   0.929774
  0.207207,   0.359897,   0.926767
  0.216216,   0.359047,   0.923796
  0.225225,   0.358207,   0.920863
  0.234234,   0.357377,   0.917966
  0.243243,   0.356555,   0.915106
  0.252252,   0.355744,   0.912283
  0.261261,   0.354942,   0.909495
  0.270270,   0.354149,   0.906743
  0.279279,   0.353366,   0.904026
  0.288288,   0.352593,   0.901345
  0.297297,   0.351828,   0.898697
  0.306306,   0.351073,   0.896084
  0.315315,   0.350327,   0.893504
  0.324324,   0.349590,   0.890957
  0.333333,   0.348863,   0.888442
  0.342342,   0.348144,   0.885960
  0.351351,   0.347433,   0.883509
  0.360360,   0.346732,   0.881089
  0.369369,   0.346038,   0.878699
  0.378378,   0.345354,   0.876339
  0.387387,   0.344677,   0.874009
  0.396396,   0.344009,   0.871707
  0.405405,   0.343348,   0.869434
  0.414414,   0.342696,   0.867189
  0.423423,   0.342051,   0.864971
  0.432432,   0.341414,   0.862780
  0.441441,   0.340784,   0.860616
  0.450450,   0.340162,   0.858477
  0.459459,   0.339547,   0.856364
  0.468468,   0.338939,   0.854276
  0.477477,   0.338339,   0.852212
  0.486486,   0.337745,   0.850173
  0.495495,   0.337158,   0.848157
  0.504505,   0.336577,   0.846164
  0.513514,   0.336004,   0.844194
  0.522523,   0.335436,   0.842247
  0.531532,   0.334875,   0.840322
  0.540541,   0.334320,   0.838418
  0.549550,   0.333772,   0.836536
  0.558559,   0.333229,   0.834674
  0.567568,   0.332692,   0.832833
  0.576577,   0.332162,   0.831012
  0.585586,   0.331636,   0.829211
  0.594595,   0.331117,   0.827429
  0.603604,   0.330603,   0.825666
  0.612613,   0.330094,   0.823922
  0.621622,   0.329591,   0.822196
  0.630631,   0.329093,   0.820489
  0.639640,   0.328600,   0.818799
  0.648649,   0.328113,   0.817127
  0.657658,   0.327630,   0.815472
  0.666667,   0.327152,   0.813834
  0.675676,   0.326679,   0.812212
  0.684685,   0.326211,   0.810607
  0.693694,   0.325748,   0.809018
  0.702703,   0.325289,   0.807444
  0.711712,   0.324835,   0.805886
  0.720721,   0.324385,   0.804344
  0.729730,   0.323939,   0.802816
  0.738739,   0.323498,   0.801303
  0.747748,   0.323061,   0.799805
  0.756757,   0.322628,   0.798321
  0.765766,   0.322199,   0.796851
  0.774775,   0.321775,   0.795395
  0.783784,   0.321354,   0.793952
  0.792793,   0.320937,   0.792523
  0.801802,   0.320525,   0.791107
  0.810811,   0.320115,   0.789704
  0.819820,   0.319710,   0.788314
  0.828829,   0.319309,   0.786936
  0.837838,   0.318911,   0.785571
  0.846847,   0.318516,   0.784218
  0.855856,   0.318125,   0.782877
  0.864865,   0.317738,   0.781547
  0.873874,   0.317354,   0.780230
  0.882883,   0.316973,   0.778924
  0.891892,   0.316596,   0.777629
  0.900901,   0.316221,   0.776345
  0.909910,   0.315851,   0.775073
  0.918919,   0.315483,   0.773811
  0.927928,   0.315118,   0.772559
  0.936937,   0.314757,   0.771319
  0.945946,   0.314398,   0.770088
  0.954955,   0.314043,   0.768868
  0.963964,   0.313690,   0.767658
  0.972973,   0.313341,   0.766458
  0.981982,   0.312994,   0.765267
  0.990991,   0.312650,   0.764086
  1.000000,   0.312309,   0.762915
  1.009009,   0.311970,   0.761753
  1.018018,   0.311635,   0.760600
  1.027027,   0.311302,   0.759456
  1.036036,   0.310971,   0.758322
  1.045045,   0.310643,   0.757196
  1.054054,   0.310318,   0.756079
  1.063063,   0.309995,   0.754970
  1.072072,   0.309675,   0.753870
  1.081081,   0.309358,   0.752779
  1.090090,   0.309042,   0.751695
  1.099099,   0.308729,   0.750620
  1.108108,   0.308419,   0.749553
  1.117117,   0.308111,   0.748494
  1.126126,   0.307805,   0.747443
  1.135135,   0.307501,   0.746399
  1.144144,   0.307200,   0.745363
  1.153153,   0.306901,   0.744335
  1.162162,   0.306604,   0.743314
  1.171171,   0.306309,   0.742300
  1.180180,   0.306016,   0.741294
  1.189189,   0.305726,   0.740295
  1.198198,   0.305437,   0.739303
  1.207207,   0.305151,   0.738318
  1.216216,   0.304866,   0.737340
  1.225225,   0.304584,   0.736369
  1.234234,   0.304304,   0.735404
  1.243243,   0.304025,   0.734446
  1.252252,   0.303749,   0.733495
  1.261261,   0.303474,   0.732550
  1.270270,   0.303201,   0.731612
  1.279279,   0.302930,   0.730680
  1.288288,   0.302661,   0.729754
  1.297297,   0.302394,   0.728835
  1.306306,   0.302129,   0.727921
  1.315315,   0.301865,   0.727014
  1.324324,   0.301603,   0.726113
  1.333333,   0.301343,   0.725217
  1.342342,   0.301085,   0.724328
  1.351351,   0.300828,   0.723444
  1.360360,   0.300573,   0.722566
  1.369369,   0.300320,   0.721693
  1.378378,   0.300068,   0.720826
  1.387387,   0.299818,   0.719965
  1.396396,   0.299569,   0.719109
  1.405405,   0.299322,   0.718259
  1.414414,   0.299077,   0.717414
  1.423423,   0.298833,   0.716574
  1.432432,   0.298591,   0.715739
  1.441441,   0.298350,   0.714909
  1.450450,   0.298111,   0.714085
  1.459459,   0.297873,   0.713266
  1.468468,   0.297637,   0.712451
  1.477477,   0.297402,   0.711642
  1.486486,   0.297169,   0.710837
  1.495495,   0.296937,   0.710038
  1.504505,   0.296706,   0.709243
  1.513514,   0.296477,   0.708453
  1.522523,   0.296249,   0.707667
  1.531532,   0.296022,   0.706886
  1.540541,   0.295797,   0.706110
  1.549550,   0.295573,   0.705338
  1.558559,   0.295351,   0.704571
  1.567568,   0.295130,   0.703808
  1.576577,   0.294910,   0.703050
  1.585586,   0.294691,   0.702296
  1.594595,   0.294474,   0.701546
  1.603604,   0.294258,   0.700801
  1.612613,   0.294043,   0.700059
  1.621622,   0.293829,   0.699322
  1.630631,   0.293617,   0.698590
  1.639640,   0.293406,   0.697861
  1.648649,   0.293196,   0.697136
  1.657658,   0.292987,   0.696415
  1.666667,   0.292779,   0.695698
  1.675676,   0.292573,   0.694986
  1.684685,   0.292367,   0.694277
  1.693694,   0.292163,   0.693572
  1.702703,   0.291960,   0.692870
  1.711712,   0.291758,   0.692173
  1.720721,   0.291557,   0.691479
  1.729730,   0.291357,   0.690789
  1.738739,   0.291158,   0.690103
  1.747748,   0.290961,   0.689420
  1.756757,   0.290764,   0.688741
  1.765766,   0.290568,   0.688066
  1.774775,   0.290374,   0.687394
  1.783784,   0.290180,   0.686726
  1.792793,   0.289988,   0.686061
  1.801802,   0.289796,   0.685399
  1.810811,   0.289606,   0.684741
  1.819820,   0.289416,   0.684086
  1.828829,   0.289228,   0.683435
  1.837838,   0.289040,   0.682787
  1.846847,   0.288854,   0.682142
  1.855856,   0.288668,   0.681501
  1.864865,   0.288483,   0.680863
  1.873874,   0.288300,   0.680228
  1.882883,   0.288117,   0.679596
  1.891892,   0.287935,   0.678967
  1.900901,   0.287754,   0.678342
  1.909910,   0.287574,   0.677719
  1.918919,   0.287395,   0.677100
  1.927928,   0.287216,   0.676483
  1.936937,   0.287039,   0.675870
  1.945946,   0.286863,   0.675260
  1.954955,   0.286687,   0.674652
  1.963964,   0.286512,   0.674048
  1.972973,   0.286338,   0.673446
  1.981982,   0.286165,   0.672847
  1.990991,   0.285993,   0.672252
  2.000000,   0.285821,   0.671659
  2.009009,   0.285651,   0.671068
  2.018018,   0.285481,   0.670481
  2.027027,   0.285312,   0.669896
  2.036036,   0.285144,   0.669314
  2.045045,   0.284976,   0.668735
  2.054054,   0.284810,   0.668159
  2.063063,   0.284644,   0.667585
  2.072072,   0.284479,   0.667014
  2.081081,   0.284315,   0.666445
  2.090090,   0.284151,   0.665879
  2.099099,   0.283988,   0.665316
  2.108108,   0.283826,   0.664755
  2.117117,   0.283665,   0.664197
  2.126126,   0.283504,   0.663641
  2.135135,   0.283345,   0.663088
  2.144144,   0.283186,   0.662537
  2.153153,   0.283027,   0.661989
  2.162162,   0.282870,   0.661443
  2.171171,   0.282713,   0.660899
  2.180180,   0.282556,   0.660358
  2.189189,   0.282401,   0.659820
  2.198198,   0.282246,   0.659283
  2.207207,   0.282092,   0.658749
  2.216216,   0.281938,   0.658218
  2.225225,   0.281785,   0.657689
  2.234234,   0.281633,   0.657162
  2.243243,   0.281482,   0.656637
  2.252252,   0.281331,   0.656114
  2.261261,   0.281181,   0.655594
  2.270270,   0.281031,   0.655076
  2.279279,   0.280883,   0.654560
  2.288288,   0.280734,   0.654047
  2.297297,   0.280587,   0.653535
  2.306306,   0.280440,   0.653026
  2.315315,   0.280293,   0.652519
  2.324324,   0.280148,   0.652014
  2.333333,   0.280003,   0.651511
  2.342342,   0.279858,   0.651010
  2.351351,   0.279714,   0.650511
  2.360360,   0.279571,   0.650015
  2.369369,   0.279428,   0.649520
  2.378378,   0.279286,   0.649027
  2.387387,   0.279145,   0.648537
  2.396396,   0.279004,   0.648048
  2.405405,   0.278863,   0.647562
  2.414414,   0.278724,   0.647077
  2.423423,   0.278584,   0.646594
  2.432432,   0.278446,   0.646114
  2.441441,   0.278308,   0.645635
  2.450450,   0.278170,   0.645158
  2.459459,   0.278033,   0.644683
  2.468468,   0.277897,   0.644210
  2.477477,   0.277761,   0.643739
  2.486486,   0.277626,   0.643269
  2.495495,   0.277491,   0.642802
  2.504505,   0.277357,   0.642336
  2.513514,   0.277223,   0.641872
  2.522523,   0.277090,   0.641410
  2.531532,   0.276957,   0.640950
  2.540541,   0.276825,   0.640491
  2.549550,   0.276693,   0.640035
  2.558559,   0.276562,   0.639580
  2.567568,   0.276432,   0.639126
  2.576577,   0.276302,   0.638675
  2.585586,   0.276172,   0.638225
  2.594595,   0.276043,   0.637777
  2.603604,   0.275914,   0.637331
  2.612613,   0.275786,   0.636886
  2.621622,   0.275659,   0.636443
  2.630631,   0.275532,   0.636002
  2.639640,   0.275405,   0.635562
  2.648649,   0.275279,   0.635124
  2.657658,   0.275153,   0.634688
  2.666667,   0.275028,   0.634253
  2.675676,   0.274903,   0.633820
  2.684685,   0.274779,   0.633389
  2.693694,   0.274655,   0.632959
  2.702703,   0.274532,   0.632530
  2.711712,   0.274409,   0.632104
  2.720721,   0.274286,   0.631678
  2.729730,   0.274164,   0.631255
  2.738739,   0.274043,   0.630832
  2.747748,   0.273922,   0.630412
  2.756757,   0.273801,   0.629993
  2.765766,   0.273681,   0.629575
  2.774775,   0.273561,   0.629159
  2.783784,   0.273442,   0.628744
  2.792793,   0.273323,   0.628331
  2.801802,   0.273204,   0.627920
  2.810811,   0.273086,   0.627509
  2.819820,   0.272969,   0.627101
  2.828829,   0.272851,   0.626693
  2.837838,   0.272735,   0.626287
  2.846847,   0.272618,   0.625883
  2.855856,   0.272502,   0.625480
  2.864865,   0.272387,   0.625078
  2.873874,   0.272271,   0.624678
  2.882883,   0.272157,   0.624279
  2.891892,   0.272042,   0.623882
  2.900901,   0.271928,   0.623486
  2.909910,   0.271815,   0.623091
  2.918919,   0.271702,   0.622698
  2.927928,   0.271589,   0.622306
  2.936937,   0.271476,   0.621915
  2.945946,   0.271364,   0.621525
  2.954955,   0.271253,   0.621137
  2.963964,   0.271142,   0.620751
  2.972973,   0.271031,   0.620365
  2.981982,   0.270920,   0.619981
  2.990991,   0.270810,   0.619598
  3.000000,   0.270700,   0.619217
  3.009009,   0.270591,   0.618836
  3.018018,   0.270482,   0.618457
  3.027027,   0.270373,   0.618080
  3.036036,   0.270265,   0.617703
  3.045045,   0.270157,   0.617328
  3.054054,   0.270050,   0.616954
  3.063063,   0.269943,   0.616581
  3.072072,   0.269836,   0.616209
  3.081081,   0.269729,   0.615839
  3.090090,   0.269623,   0.615470
  3.099099,   0.269517,   0.615102
  3.108108,   0.269412,   0.614735
  3.117117,   0.269307,   0.614369
  3.126126,   0.269202,   0.614005
  3.135135,   0.269098,   0.613642
  3.144144,   0.268994,   0.613280
  3.153153,   0.268890,   0.612919
  3.162162,   0.268787,   0.612559
  3.171171,   0.268684,   0.612200
  3.180180,   0.268581,   0.611843
  3.189189,   0.268478,   0.611487
  3.198198,   0.268376,   0.611131
  3.207207,   0.268275,   0.610777
  3.216216,   0.268173,   0.610424
  3.225225,   0.268072,   0.610073
  3.234234,   0.267971,   0.609722
  3.243243,   0.267871,   0.609372
  3.252252,   0.267771,   0.609023
  3.261261,   0.267671,   0.608676
  3.270270,   0.267571,   0.608330
  3.279279,   0.267472,   0.607984
  3.288288,   0.267373,   0.607640
  3.297297,   0.267275,   0.607297
  3.306306,   0.267176,   0.606954
  3.315315,   0.267079,   0.606613
  3.324324,   0.266981,   0.606273
  3.333333,   0.266883,   0.605934
  3.342342,   0.266786,   0.605596
  3.351351,   0.266690,   0.605259
  3.360360,   0.266593,   0.604923
  3.369369,   0.266497,   0.604588
  3.378378,   0.266401,   0.604254
  3.387387,   0.266305,   0.603921
  3.396396,   0.266210,   0.603589
  3.405405,   0.266115,   0.603258
  3.414414,   0.266020,   0.602928
  3.423423,   0.265926,   0.602599
  3.432432,   0.265832,   0.602271
  3.441441,   0.265738,   0.601944
  3.450450,   0.265644,   0.601618
  3.459459,   0.265551,   0.601293
  3.468468,   0.265458,   0.600969
  3.477477,   0.265365,   0.600645
  3.486486,   0.265273,   0.600323
  3.495495,   0.265180,   0.600002
  3.504505,   0.265088,   0.599681
  3.513514,   0.264997,   0.599362
  3.522523,   0.264905,   0.599043
  3.531532,   0.264814,   0.598726
  3.540541,   0.264723,   0.598409
  3.549550,   0.264633,   0.598093
  3.558559,   0.264542,   0.597778
  3.567568,   0.264452,   0.597464
  3.576577,   0.264362,   0.597151
  3.585586,   0.264273,   0.596839
  3.594595,   0.264183,   0.596527
  3.603604,   0.264094,   0.596217
  3.612613,   0.264006,   0.595907
  3.621622,   0.263917,   0.595599
  3.630631,   0.263829,   0.595291
  3.639640,   0.263741,   0.594984
  3.648649,   0.263653,   0.594678
  3.657658,   0.263565,   0.594373
  3.666667,   0.263478,   0.594068
  3.675676,   0.263391,   0.593765
  3.684685,   0.263304,   0.593462
  3.693694,   0.263218,   0.593160
  3.702703,   0.263131,   0.592859
  3.711712,   0.263045,   0.592559
  3.720721,   0.262959,   0.592259
  3.729730,   0.262874,   0.591961
  3.738739,   0.262788,   0.591663
  3.747748,   0.262703,   0.591366
  3.756757,   0.262618,   0.591070
  3.765766,   0.262534,   0.590775
  3.774775,   0.262449,   0.590480
  3.783784,   0.262365,   0.590187
  3.792793,   0.262281,   0.589894
  3.801802,   0.262197,   0.589602
  3.810811,   0.262114,   0.589310
  3.819820,   0.262030,   0.589020
  3.828829,   0.261947,   0.588730
  3.837838,   0.261864,   0.588441
  3.846847,   0.261782,   0.588153
  3.855856,   0.261699,   0.587865
  3.864865,   0.261617,   0.587579
  3.873874,   0.261535,   0.587293
  3.882883,   0.261454,   0.587007
  3.891892,   0.261372,   0.586723
  3.900901,   0.261291,   0.586439
  3.909910,   0.261210,   0.586156
  3.918919,   0.261129,   0.585874
  3.927928,   0.261048,   0.585593
  3.936937,   0.260968,   0.585312
  3.945946,   0.260888,   0.585032
  3.954955,   0.260808,   0.584753
  3.963964,   0.260728,   0.584474
  3.972973,   0.260648,   0.584197
  3.981982,   0.260569,   0.583920
  3.990991,   0.260490,   0.583643
  4.000000,   0.260411,   0.583368
  4.009009,   0.260332,   0.583093
  4.018018,   0.260253,   0.582818
  4.027027,   0.260175,   0.582545
  4.036036,   0.260097,   0.582272
  4.045045,   0.260019,   0.582000
  4.054054,   0.259941,   0.581728
  4.063063,   0.259863,   0.581458
  4.072072,   0.259786,   0.581188
  4.081081,   0.259709,   0.580918
  4.090090,   0.259632,   0.580649
  4.099099,   0.259555,   0.580381
  4.108108,   0.259479,   0.580114
  4.117117,   0.259402,   0.579847
  4.126126,   0.259326,   0.579581
  4.135135,   0.259250,   0.579316
  4.144144,   0.259174,   0.579051
  4.153153,   0.259099,   0.578787
  4.162162,   0.259023,   0.578524
  4.171171,   0.258948,   0.578261
  4.180180,   0.258873,   0.577999
  4.189189,   0.258798,   0.577738
  4.198198,   0.258723,   0.577477
  4.207207,   0.258649,   0.577217
  4.216216,   0.258575,   0.576957
  4.225225,   0.258501,   0.576698
  4.234234,   0.258427,   0.576440
  4.243243,   0.258353,   0.576183
  4.252252,   0.258279,   0.575926
  4.261261,   0.258206,   0.575669
  4.270270,   0.258133,   0.575414
  4.279279,   0.258060,   0.575158
  4.288288,   0.257987,   0.574904
  4.297297,   0.257914,   0.574650
  4.306306,   0.257842,   0.574397
  4.315315,   0.257769,   0.574144
  4.324324,   0.257697,   0.573892
  4.333333,   0.257625,   0.573641
  4.342342,   0.257553,   0.573390
  4.351351,   0.257482,   0.573139
  4.360360,   0.257410,   0.572890
  4.369369,   0.257339,   0.572641
  4.378378,   0.257268,   0.572392
  4.387387,   0.257197,   0.572144
  4.396396,   0.257126,   0.571897
  4.405405,   0.257056,   0.571650
  4.414414,   0.256985,   0.571404
  4.423423,   0.256915,   0.571159
  4.432432,   0.256845,   0.570914
  4.441441,   0.256775,   0.570669
  4.450450,   0.256705,   0.570425
  4.459459,   0.256636,   0.570182
  4.468468,   0.256566,   0.569939
  4.477477,   0.256497,   0.569697
  4.486486,   0.256428,   0.569456
  4.495495,   0.256359,   0.569215
  4.504505,   0.256290,   0.568974
  4.513514,   0.256221,   0.568734
  4.522523,   0.256153,   0.568495
  4.531532,   0.256085,   0.568256
  4.540541,   0.256016,   0.568018
  4.549550,   0.255948,   0.567780
  4.558559,   0.255881,   0.567543
  4.567568,   0.255813,   0.567306
  4.576577,   0.255745,   0.567070
  4.585586,   0.255678,   0.566834
  4.594595,   0.255611,   0.566599
  4.603604,   0.255544,   0.566365
  4.612613,   0.255477,   0.566131
  4.621622,   0.255410,   0.565898
  4.630631,   0.255343,   0.565665
  4.639640,   0.255277,   0.565432
  4.648649,   0.255211,   0.565200
  4.657658,   0.255144,   0.564969
  4.666667,   0.255078,   0.564738
  4.675676,   0.255013,   0.564508
  4.684685,   0.254947,   0.564278
  4.693694,   0.254881,   0.564049
  4.702703,   0.254816,   0.563820
  4.711712,   0.254751,   0.563592
  4.720721,   0.254686,   0.563364
  4.729730,   0.254621,   0.563136
  4.738739,   0.254556,   0.562910
  4.747748,   0.254491,   0.562683
  4.756757,   0.254426,   0.562458
  4.765766,   0.254362,   0.562232
  4.774775,   0.254298,   0.562007
  4.783784,   0.254234,   0.561783
  4.792793,   0.254170,   0.561559
  4.801802,   0.254106,   0.561336
  4.810811,   0.254042,   0.561113
  4.819820,   0.253979,   0.560891
  4.828829,   0.253915,   0.560669
  4.837838,   0.253852,   0.560447
  4.846847,   0.253789,   0.560226
  4.855856,   0.253726,   0.560006
  4.864865,   0.253663,   0.559786
  4.873874,   0.253600,   0.559567
  4.882883,   0.253537,   0.559347
  4.891892,   0.253475,   0.559129
  4.900901,   0.253413,   0.558911
  4.909910,   0.253351,   0.558693
  4.918919,   0.253288,   0.558476
  4.927928,   0.253227,   0.558259
  4.936937,   0.253165,   0.558043
  4.945946,   0.253103,   0.557827
  4.954955,   0.253042,   0.557612
  4.963964,   0.252980,   0.557397
  4.972973,   0.252919,   0.557182
  4.981982,   0.252858,   0.556968
  4.990991,   0.252797,   0.556755
  5.000000,   0.252736,   0.556542
  5.009009,   0.252675,   0.556329
  5.018018,   0.252614,   0.556117
  5.027027,   0.252554,   0.555905
  5.036036,   0.252494,   0.555694
  5.045045,   0.252433,   0.555483
  5.054054,   0.252373,   0.555272
  5.063063,   0.252313,   0.555062
  5.072072,   0.252253,   0.554853
  5.081081,   0.252194,   0.554644
  5.090090,   0.252134,   0.554435
  5.099099,   0.252074,   0.554227
  5.108108,   0.252015,   0.554019
  5.117117,   0.251956,   0.553811
  5.126126,   0.251897,   0.553604
