h[m], water_content[-], rel_perm[-]
  0.000000,   0.410000,   1.000000
  0.009009,   0.409007,   0.991178
  0.018018,   0.406363,   0.976125
  0.027027,   0.402319,   0.957917
  0.036036,   0.397091,   0.937858
  0.045045,   0.390895,   0.916769
  0.054054,   0.383939,   0.895212
  0.063063,   0.376421,   0.873581
  0.072072,   0.368518,   0.852155
  0.081081,   0.360384,   0.831129
  0.090090,   0.352148,   0.810635
  0.099099,   0.343916,   0.790758
  0.108108,   0.335773,   0.771552
  0.117117,   0.327781,   0.753045
  0.126126,   0.319989,   0.735246
  0.135135,   0.312431,   0.718152
  0.144144,   0.305128,   0.701751
  0.153153,   0.298095,   0.686026
  0.162162,   0.291337,   0.670953
  0.171171,   0.284856,   0.656507
  0.180180,   0.278650,   0.642663
  0.189189,   0.272712,   0.629392
  0.198198,   0.267035,   0.616667
  0.207207,   0.261609,   0.604463
  0.216216,   0.256425,   0.592752
  0.225225,   0.251472,   0.581509
  0.234234,   0.246740,   0.570711
  0.243243,   0.242216,   0.560335
  0.252252,   0.237892,   0.550358
  0.261261,   0.233756,   0.540760
  0.270270,   0.229799,   0.531521
  0.279279,   0.226012,   0.522623
  0.288288,   0.222384,   0.514048
  0.297297,   0.218908,   0.505781
  0.306306,   0.215575,   0.497804
  0.315315,   0.212378,   0.490104
  0.324324,   0.209309,   0.482668
  0.333333,   0.206361,   0.475481
  0.342342,   0.203528,   0.468533
  0.351351,   0.200805,   0.461811
  0.360360,   0.198184,   0.455306
  0.369369,   0.195661,   0.449006
  0.378378,   0.193232,   0.442902
  0.387387,   0.190890,   0.436986
  0.396396,   0.188631,   0.431248
  0.405405,   0.186453,   0.425682
  0.414414,   0.184349,   0.420278
  0.423423,   0.182318,   0.415031
  0.432432,   0.180355,   0.409933
  0.441441,   0.178457,   0.404979
  0.450450,   0.176621,   0.400161
  0.459459,   0.174844,   0.395476
  0.468468,   0.173124,   0.390916
  0.477477,   0.171457,   0.386477
  0.486486,   0.169842,   0.382154
  0.495495,   0.168276,   0.377943
  0.504505,   0.166757,   0.373839
  0.513514,   0.165283,   0.369838
  0.522523,   0.163852,   0.365937
  0.531532,   0.162462,   0.362131
  0.540541,   0.161111,   0.358416
  0.549550,   0.159799,   0.354791
  0.558559,   0.158523,   0.351250
  0.567568,   0.157281,   0.347792
  0.576577,   0.156073,   0.344414
  0.585586,   0.154898,   0.341112
  0.594595,   0.153753,   0.337884
  0.603604,   0.152638,   0.334727
  0.612613,   0.151551,   0.331639
  0.621622,   0.150492,   0.328618
  0.630631,   0.149459,   0.325662
  0.639640,   0.148452,   0.322768
  0.648649,   0.147469,   0.319934
  0.657658,   0.146510,   0.317159
  0.666667,   0.145574,   0.314440
  0.675676,   0.144660,   0.311777
  0.684685,   0.143768,   0.309166
  0.693694,   0.142895,   0.306607
  0.702703,   0.142043,   0.304097
  0.711712,   0.141210,   0.301636
  0.720721,   0.140395,   0.299223
  0.729730,   0.139599,   0.296854
  0.738739,   0.138819,   0.294530
  0.747748,   0.138057,   0.292249
  0.756757,   0.137310,   0.290010
  0.765766,   0.136580,   0.287811
  0.774775,   0.135864,   0.285652
  0.783784,   0.135164,   0.283531
  0.792793,   0.134477,   0.281448
  0.801802,   0.133805,   0.279400
  0.810811,   0.133146,   0.277388
  0.819820,   0.132500,   0.275411
  0.828829,   0.131867,   0.273467
  0.837838,   0.131246,   0.271555
  0.846847,   0.130637,   0.269675
  0.855856,   0.130039,   0.267826
  0.864865,   0.129453,   0.266008
  0.873874,   0.128878,   0.264218
  0.882883,   0.128314,   0.262458
  0.891892,   0.127760,   0.260725
  0.900901,   0.127215,   0.259019
  0.909910,   0.126681,   0.257340
  0.918919,   0.126156,   0.255687
  0.927928,   0.125641,   0.254059
  0.936937,   0.125134,   0.252456
  0.945946,   0.124637,   0.250877
  0.954955,   0.124148,   0.249321
  0.963964,   0.123667,   0.247789
  0.972973,   0.123194,   0.246279
  0.981982,   0.122730,   0.244791
  0.990991,   0.122273,   0.243324
  1.000000,   0.121823,   0.241879
  1.009009,   0.121381,   0.240454
  1.018018,   0.120946,   0.239049
  1.027027,   0.120518,   0.237663
  1.036036,   0.120097,   0.236297
  1.045045,   0.119683,   0.234950
  1.054054,   0.119275,   0.233621
  1.063063,   0.118873,   0.232310
  1.072072,   0.118478,   0.231016
  1.081081,   0.118089,   0.229740
  1.090090,   0.117705,   0.228481
  1.099099,   0.117328,   0.227238
  1.108108,   0.116956,   0.226011
  1.117117,   0.116589,   0.224801
  1.126126,   0.116228,   0.223605
  1.135135,   0.115872,   0.222425
  1.144144,   0.115522,   0.221260
  1.153153,   0.115176,   0.220110
  1.162162,   0.114836,   0.218974
  1.171171,   0.114500,   0.217852
  1.180180,   0.114169,   0.216743
  1.189189,   0.113842,   0.215649
  1.198198,   0.113520,   0.214567
  1.207207,   0.113203,   0.213499
  1.216216,   0.112890,   0.212443
  1.225225,   0.112581,   0.211400
  1.234234,   0.112276,   0.210369
  1.243243,   0.111976,   0.209350
  1.252252,   0.111679,   0.208344
  1.261261,   0.111387,   0.207348
  1.270270,   0.111098,   0.206364
  1.279279,   0.110813,   0.205392
  1.288288,   0.110531,   0.204430
  1.297297,   0.110254,   0.203479
  1.306306,   0.109979,   0.202539
  1.315315,   0.109709,   0.201609
  1.324324,   0.109441,   0.200690
  1.333333,   0.109178,   0.199781
  1.342342,   0.108917,   0.198881
  1.351351,   0.108659,   0.197991
  1.360360,   0.108405,   0.197111
  1.369369,   0.108154,   0.196240
  1.378378,   0.107906,   0.195379
  1.387387,   0.107661,   0.194527
  1.396396,   0.107419,   0.193683
  1.405405,   0.107179,   0.192849
  1.414414,   0.106943,   0.192023
  1.423423,   0.106709,   0.191205
  1.432432,   0.106478,   0.190396
  1.441441,   0.106250,   0.189595
  1.450450,   0.106024,   0.188803
  1.459459,   0.105801,   0.188018
  1.468468,   0.105581,   0.187241
  1.477477,   0.105363,   0.186472
  1.486486,   0.105147,   0.185710
  1.495495,   0.104934,   0.184956
  1.504505,   0.104724,   0.184210
  1.513514,   0.104515,   0.183470
  1.522523,   0.104309,   0.182738
  1.531532,   0.104105,   0.182013
  1.540541,   0.103904,   0.181295
  1.549550,   0.103704,   0.180583
  1.558559,   0.103507,   0.179879
  1.567568,   0.103312,   0.179181
  1.576577,   0.103119,   0.178489
  1.585586,   0.102928,   0.177804
  1.594595,   0.102739,   0.177125
  1.603604,   0.102552,   0.176453
  1.612613,   0.102366,   0.175786
  1.621622,   0.102183,   0.175126
  1.630631,   0.102002,   0.174472
  1.639640,   0.101823,   0.173824
  1.648649,   0.101645,   0.173181
  1.657658,   0.101469,   0.172544
  1.666667,   0.101295,   0.171913
  1.675676,   0.101123,   0.171288
  1.684685,   0.100952,   0.170668
  1.693694,   0.100783,   0.170053
  1.702703,   0.100616,   0.169444
  1.711712,   0.100451,   0.168840
  1.720721,   0.100287,   0.168241
  1.729730,   0.100124,   0.167647
  1.738739,   0.099964,   0.167058
  1.747748,   0.099804,   0.166475
  1.756757,   0.099647,   0.165896
  1.765766,   0.099491,   0.165322
  1.774775,   0.099336,   0.164753
  1.783784,   0.099183,   0.164189
  1.792793,   0.099031,   0.163629
  1.801802,   0.098880,   0.163074
  1.810811,   0.098731,   0.162524
  1.819820,   0.098584,   0.161978
  1.828829,   0.098438,   0.161436
  1.837838,   0.098293,   0.160899
  1.846847,   0.098149,   0.160366
  1.855856,   0.098007,   0.159837
  1.864865,   0.097866,   0.159313
  1.873874,   0.097726,   0.158793
  1.882883,   0.097588,   0.158277
  1.891892,   0.097451,   0.157765
  1.900901,   0.097314,   0.157256
  1.909910,   0.097180,   0.156752
  1.918919,   0.097046,   0.156252
  1.927928,   0.096914,   0.155756
  1.936937,   0.096782,   0.155263
  1.945946,   0.096652,   0.154775
  1.954955,   0.096523,   0.154290
  1.963964,   0.096395,   0.153808
  1.972973,   0.096268,   0.153331
  1.981982,   0.096143,   0.152856
  1.990991,   0.096018,   0.152386
  2.000000,   0.095894,   0.151919
  2.009009,   0.095772,   0.151455
  2.018018,   0.095650,   0.150995
  2.027027,   0.095529,   0.150538
  2.036036,   0.095410,   0.150085
  2.045045,   0.095291,   0.149635
  2.054054,   0.095174,   0.149188
  2.063063,   0.095057,   0.148744
  2.072072,   0.094941,   0.148304
  2.081081,   0.094827,   0.147866
  2.090090,   0.094713,   0.147432
  2.099099,   0.094600,   0.147001
  2.108108,   0.094488,   0.146573
  2.117117,   0.094377,   0.146148
  2.126126,   0.094267,   0.145726
  2.135135,   0.094157,   0.145307
  2.144144,   0.094049,   0.144891
  2.153153,   0.093941,   0.144478
  2.162162,   0.093834,   0.144067
  2.171171,   0.093728,   0.143660
  2.180180,   0.093623,   0.143255
  2.189189,   0.093519,   0.142853
  2.198198,   0.093415,   0.142454
  2.207207,   0.093313,   0.142057
  2.216216,   0.093211,   0.141663
  2.225225,   0.093110,   0.141272
  2.234234,   0.093009,   0.140883
  2.243243,   0.092909,   0.140497
  2.252252,   0.092811,   0.140114
  2.261261,   0.092712,   0.139733
  2.270270,   0.092615,   0.139354
  2.279279,   0.092518,   0.138978
  2.288288,   0.092422,   0.138605
  2.297297,   0.092327,   0.138234
  2.306306,   0.092232,   0.137865
  2.315315,   0.092138,   0.137499
  2.324324,   0.092045,   0.137135
  2.333333,   0.091953,   0.136773
  2.342342,   0.091861,   0.136414
  2.351351,   0.091770,   0.136057
  2.360360,   0.091679,   0.135702
  2.369369,   0.091589,   0.135350
  2.378378,   0.091500,   0.135000
  2.387387,   0.091411,   0.134651
  2.396396,   0.091323,   0.134306
  2.405405,   0.091236,   0.133962
  2.414414,   0.091149,   0.133620
  2.423423,   0.091063,   0.133281
  2.432432,   0.090977,   0.132943
  2.441441,   0.090892,   0.132608
  2.450450,   0.090808,   0.132275
  2.459459,   0.090724,   0.131944
  2.468468,   0.090641,   0.131614
  2.477477,   0.090558,   0.131287
  2.486486,   0.090476,   0.130962
  2.495495,   0.090395,   0.130639
  2.504505,   0.090314,   0.130317
  2.513514,   0.090233,   0.129998
  2.522523,   0.090153,   0.129680
  2.531532,   0.090074,   0.129365
  2.540541,   0.089995,   0.129051
  2.549550,   0.089917,   0.128739
  2.558559,   0.089839,   0.128429
  2.567568,   0.089762,   0.128120
  2.576577,   0.089685,   0.127814
  2.585586,   0.089608,   0.127509
  2.594595,   0.089533,   0.127206
  2.603604,   0.089457,   0.126905
  2.612613,   0.089383,   0.126605
  2.621622,   0.089308,   0.126308
  2.630631,   0.089234,   0.126012
  2.639640,   0.089161,   0.125717
  2.648649,   0.089088,   0.125424
  2.657658,   0.089016,   0.125133
  2.666667,   0.088944,   0.124844
  2.675676,   0.088872,   0.124556
  2.684685,   0.088801,   0.124270
  2.693694,   0.088731,   0.123985
  2.702703,   0.088660,   0.123702
  2.711712,   0.088591,   0.123421
  2.720721,   0.088521,   0.123141
  2.729730,   0.088452,   0.122863
  2.738739,   0.088384,   0.122586
  2.747748,   0.088316,   0.122310
  2.756757,   0.088248,   0.122037
  2.765766,   0.088181,   0.121764
  2.774775,   0.088114,   0.121493
  2.783784,   0.088048,   0.121224
  2.792793,   0.087982,   0.120956
  2.801802,   0.087917,   0.120690
  2.810811,   0.087851,   0.120425
  2.819820,   0.087787,   0.120161
  2.828829,   0.087722,   0.119899
  2.837838,   0.087658,   0.119638
  2.846847,   0.087595,   0.119378
  2.855856,   0.087531,   0.119120
  2.864865,   0.087468,   0.118863
  2.873874,   0.087406,   0.118608
  2.882883,   0.087344,   0.118354
  2.891892,   0.087282,   0.118101
  2.900901,   0.087221,   0.117850
  2.909910,   0.087159,   0.117600
  2.918919,   0.087099,   0.117351
  2.927928,   0.087038,   0.117103
  2.936937,   0.086978,   0.116857
  2.945946,   0.086919,   0.116612
  2.954955,   0.086859,   0.116368
  2.963964,   0.086800,   0.116125
  2.972973,   0.086742,   0.115884
  2.981982,   0.086684,   0.115644
  2.990991,   0.086626,   0.115405
  3.000000,   0.086568,   0.115167
  3.009009,   0.086511,   0.114931
  3.018018,   0.086454,   0.114695
  3.027027,   0.086397,   0.114461
  3.036036,   0.086341,   0.114228
  3.045045,   0.086285,   0.113996
  3.054054,   0.086229,   0.113766
  3.063063,   0.086173,   0.113536
  3.072072,   0.086118,   0.113308
  3.081081,   0.086063,   0.113080
  3.090090,   0.086009,   0.112854
  3.099099,   0.085955,   0.112629
  3.108108,   0.085901,   0.112405
  3.117117,   0.085847,   0.112182
  3.126126,   0.085794,   0.111960
  3.135135,   0.085741,   0.111739
  3.144144,   0.085688,   0.111520
  3.153153,   0.085635,   0.111301
  3.162162,   0.085583,   0.111083
  3.171171,   0.085531,   0.110867
  3.180180,   0.085480,   0.110651
  3.189189,   0.085428,   0.110436
  3.198198,   0.085377,   0.110223
  3.207207,   0.085326,   0.110010
  3.216216,   0.085276,   0.109799
  3.225225,   0.085226,   0.109588
  3.234234,   0.085176,   0.109378
  3.243243,   0.085126,   0.109170
  3.252252,   0.085076,   0.108962
  3.261261,   0.085027,   0.108755
  3.270270,   0.084978,   0.108550
  3.279279,   0.084929,   0.108345
  3.288288,   0.084881,   0.108141
  3.297297,   0.084833,   0.107938
  3.306306,   0.084785,   0.107736
  3.315315,   0.084737,   0.107535
  3.324324,   0.084689,   0.107335
  3.333333,   0.084642,   0.107136
  3.342342,   0.084595,   0.106937
  3.351351,   0.084548,   0.106740
  3.360360,   0.084502,   0.106543
  3.369369,   0.084455,   0.106347
  3.378378,   0.084409,   0.106153
  3.387387,   0.084363,   0.105959
  3.396396,   0.084318,   0.105766
  3.405405,   0.084272,   0.105573
  3.414414,   0.084227,   0.105382
  3.423423,   0.084182,   0.105191
  3.432432,   0.084138,   0.105002
  3.441441,   0.084093,   0.104813
  3.450450,   0.084049,   0.104625
  3.459459,   0.084005,   0.104438
  3.468468,   0.083961,   0.104251
  3.477477,   0.083917,   0.104065
  3.486486,   0.083874,   0.103881
  3.495495,   0.083831,   0.103697
  3.504505,   0.083788,   0.103513
  3.513514,   0.083745,   0.103331
  3.522523,   0.083702,   0.103149
  3.531532,   0.083660,   0.102969
  3.540541,   0.083618,   0.102788
  3.549550,   0.083576,   0.102609
  3.558559,   0.083534,   0.102431
  3.567568,   0.083492,   0.102253
  3.576577,   0.083451,   0.102076
  3.585586,   0.083410,   0.101899
  3.594595,   0.083369,   0.101724
  3.603604,   0.083328,   0.101549
  3.612613,   0.083287,   0.101375
  3.621622,   0.083247,   0.101201
  3.630631,   0.083207,   0.101029
  3.639640,   0.083167,   0.100857
  3.648649,   0.083127,   0.100686
  3.657658,   0.083087,   0.100515
  3.666667,   0.083048,   0.100345
  3.675676,   0.083008,   0.100176
  3.684685,   0.082969,   0.100008
  3.693694,   0.082930,   0.099840
  3.702703,   0.082892,   0.099673
  3.711712,   0.082853,   0.099506
  3.720721,   0.082815,   0.099341
  3.729730,   0.082776,   0.099176
  3.738739,   0.082738,   0.099011
  3.747748,   0.082701,   0.098848
  3.756757,   0.082663,   0.098685
  3.765766,   0.082625,   0.098522
  3.774775,   0.082588,   0.098360
  3.783784,   0.082551,   0.098199
  3.792793,   0.082514,   0.098039
  3.801802,   0.082477,   0.097879
  3.810811,   0.082440,   0.097720
  3.819820,   0.082403,   0.097561
  3.828829,   0.082367,   0.097403
  3.837838,   0.082331,   0.097246
  3.846847,   0.082295,   0.097089
  3.855856,   0.082259,   0.096933
  3.864865,   0.082223,   0.096778
  3.873874,   0.082188,   0.096623
  3.882883,   0.082152,   0.096469
  3.891892,   0.082117,   0.096315
  3.900901,   0.082082,   0.096162
  3.909910,   0.082047,   0.096010
  3.918919,   0.082012,   0.095858
  3.927928,   0.081977,   0.095706
  3.936937,   0.081943,   0.095556
  3.945946,   0.081908,   0.095406
  3.954955,   0.081874,   0.095256
  3.963964,   0.081840,   0.095107
  3.972973,   0.081806,   0.094959
  3.981982,   0.081772,   0.094811
  3.990991,   0.081739,   0.094663
  4.000000,   0.081705,   0.094517
  4.009009,   0.081672,   0.094371
  4.018018,   0.081639,   0.094225
  4.027027,   0.081606,   0.094080
  4.036036,   0.081573,   0.093935
  4.045045,   0.081540,   0.093791
  4.054054,   0.081507,   0.093648
  4.063063,   0.081475,   0.093505
  4.072072,   0.081442,   0.093362
  4.081081,   0.081410,   0.093221
  4.090090,   0.081378,   0.093079
  4.099099,   0.081346,   0.092938
  4.108108,   0.081314,   0.092798
  4.117117,   0.081282,   0.092658
  4.126126,   0.081251,   0.092519
  4.135135,   0.081219,   0.092380
  4.144144,   0.081188,   0.092242
  4.153153,   0.081157,   0.092104
  4.162162,   0.081126,   0.091967
  4.171171,   0.081095,   0.091830
  4.180180,   0.081064,   0.091694
  4.189189,   0.081033,   0.091558
  4.198198,   0.081002,   0.091423
  4.207207,   0.080972,   0.091288
  4.216216,   0.080942,   0.091154
  4.225225,   0.080911,   0.091020
  4.234234,   0.080881,   0.090887
  4.243243,   0.080851,   0.090754
  4.252252,   0.080822,   0.090621
  4.261261,   0.080792,   0.090489
  4.270270,   0.080762,   0.090358
  4.279279,   0.080733,   0.090227
  4.288288,   0.080703,   0.090096
  4.297297,   0.080674,   0.089966
  4.306306,   0.080645,   0.089837
  4.315315,   0.080616,   0.089707
  4.324324,   0.080587,   0.089579
  4.333333,   0.080558,   0.089450
  4.342342,   0.080530,   0.089323
  4.351351,   0.080501,   0.089195
  4.360360,   0.080472,   0.089068
  4.369369,   0.080444,   0.088942
  4.378378,   0.080416,   0.088816
  4.387387,   0.080388,   0.088690
  4.396396,   0.080360,   0.088565
  4.405405,   0.080332,   0.088440
  4.414414,   0.080304,   0.088316
  4.423423,   0.080276,   0.088192
  4.432432,   0.080249,   0.088068
  4.441441,   0.080221,   0.087945
  4.450450,   0.080194,   0.087823
  4.459459,   0.080166,   0.087701
  4.468468,   0.080139,   0.087579
  4.477477,   0.080112,   0.087457
  4.486486,   0.080085,   0.087336
  4.495495,   0.080058,   0.087216
  4.504505,   0.080032,   0.087096
  4.513514,   0.080005,   0.086976
  4.522523,   0.079978,   0.086856
  4.531532,   0.079952,   0.086737
  4.540541,   0.079926,   0.086619
  4.549550,   0.079899,   0.086501
  4.558559,   0.079873,   0.086383
  4.567568,   0.079847,   0.086265
  4.576577,   0.079821,   0.086148
  4.585586,   0.079795,   0.086032
  4.594595,   0.079769,   0.085916
  4.603604,   0.079744,   0.085800
  4.612613,   0.079718,   0.085684
  4.621622,   0.079693,   0.085569
  4.630631,   0.079667,   0.085454
  4.639640,   0.079642,   0.085340
  4.648649,   0.079617,   0.085226
  4.657658,   0.079591,   0.085113
  4.666667,   0.079566,   0.084999
  4.675676,   0.079541,   0.084886
  4.684685,   0.079517,   0.084774
  4.693694,   0.079492,   0.084662
  4.702703,   0.079467,   0.084550
  4.711712,   0.079443,   0.084439
  4.720721,   0.079418,   0.084328
  4.729730,   0.079394,   0.084217
  4.738739,   0.079369,   0.084106
  4.747748,   0.079345,   0.083996
  4.756757,   0.079321,   0.083887
  4.765766,   0.079297,   0.083778
  4.774775,   0.079273,   0.083669
  4.783784,   0.079249,   0.083560
  4.792793,   0.079225,   0.083452
  4.801802,   0.079201,   0.083344
  4.810811,   0.079178,   0.083236
  4.819820,   0.079154,   0.083129
  4.828829,   0.079131,   0.083022
  4.837838,   0.079107,   0.082915
  4.846847,   0.079084,   0.082809
  4.855856,   0.079061,   0.082703
  4.864865,   0.079038,   0.082598
  4.873874,   0.079015,   0.082492
  4.882883,   0.078992,   0.082388
  4.891892,   0.078969,   0.082283
  4.900901,   0.078946,   0.082179
  4.909910,   0.078923,   0.082075
  4.918919,   0.078900,   0.081971
  4.927928,   0.078878,   0.081868
  4.936937,   0.078855,   0.081765
  4.945946,   0.078833,   0.081662
  4.954955,   0.078810,   0.081560
  4.963964,   0.078788,   0.081458
  4.972973,   0.078766,   0.081356
  4.981982,   0.078744,   0.081254
  4.990991,   0.078722,   0.081153
  5.000000,   0.078700,   0.081053
  5.009009,   0.078678,   0.080952
  5.018018,   0.078656,   0.080852
  5.027027,   0.078634,   0.080752
  5.036036,   0.078613,   0.080652
  5.045045,   0.078591,   0.080553
  5.054054,   0.078569,   0.080454
  5.063063,   0.078548,   0.080355
  5.072072,   0.078527,   0.080257
  5.081081,   0.078505,   0.080159
  5.090090,   0.078484,   0.080061
  5.099099,   0.078463,   0.079963
  5.108108,   0.078442,   0.079866
  5.117117,   0.078421,   0.079769
  5.126126,   0.078400,   0.079672
