h[m], water_content[-], rel_perm[-]
  0.000000,   0.430000,   1.000000
  0.009009,   0.429806,   0.999300
  0.018018,   0.429546,   0.998362
  0.027027,   0.429254,   0.997310
  0.036036,   0.428941,   0.996180
  0.045045,   0.428610,   0.994990
  0.054054,   0.428267,   0.993751
  0.063063,   0.427912,   0.992472
  0.072072,   0.427547,   0.991160
  0.081081,   0.427175,   0.989819
  0.090090,   0.426795,   0.988454
  0.099099,   0.426410,   0.987066
  0.108108,   0.426019,   0.985661
  0.117117,   0.425624,   0.984238
  0.126126,   0.425224,   0.982802
  0.135135,   0.424821,   0.981353
  0.144144,   0.424415,   0.979894
  0.153153,   0.424006,   0.978425
  0.162162,   0.423595,   0.976948
  0.171171,   0.423182,   0.975464
  0.180180,   0.422767,   0.973974
  0.189189,   0.422351,   0.972480
  0.198198,   0.421933,   0.970981
  0.207207,   0.421514,   0.969479
  0.216216,   0.421094,   0.967974
  0.225225,   0.420674,   0.966468
  0.234234,   0.420253,   0.964960
  0.243243,   0.419832,   0.963451
  0.252252,   0.419411,   0.961943
  0.261261,   0.418990,   0.960434
  0.270270,   0.418568,   0.958926
  0.279279,   0.418147,   0.957419
  0.288288,   0.417727,   0.955914
  0.297297,   0.417306,   0.954411
  0.306306,   0.416886,   0.952910
  0.315315,   0.416467,   0.951411
  0.324324,   0.416048,   0.949915
  0.333333,   0.415630,   0.948422
  0.342342,   0.415213,   0.946932
  0.351351,   0.414797,   0.945446
  0.360360,   0.414381,   0.943964
  0.369369,   0.413967,   0.942485
  0.378378,   0.413554,   0.941011
  0.387387,   0.413141,   0.939540
  0.396396,   0.412730,   0.938075
  0.405405,   0.412320,   0.936613
  0.414414,   0.411911,   0.935157
  0.423423,   0.411504,   0.933705
  0.432432,   0.411097,   0.932258
  0.441441,   0.410692,   0.930816
  0.450450,   0.410289,   0.929380
  0.459459,   0.409886,   0.927948
  0.468468,   0.409485,   0.926522
  0.477477,   0.409086,   0.925102
  0.486486,   0.408687,   0.923687
  0.495495,   0.408291,   0.922277
  0.504505,   0.407896,   0.920873
  0.513514,   0.407502,   0.919474
  0.522523,   0.407109,   0.918082
  0.531532,   0.406719,   0.916695
  0.540541,   0.406329,   0.915313
  0.549550,   0.405942,   0.913938
  0.558559,   0.405556,   0.912569
  0.567568,   0.405171,   0.911205
  0.576577,   0.404788,   0.909847
  0.585586,   0.404406,   0.908495
  0.594595,   0.404026,   0.907149
  0.603604,   0.403648,   0.905809
  0.612613,   0.403271,   0.904475
  0.621622,   0.402896,   0.903147
  0.630631,   0.402522,   0.901825
  0.639640,   0.402150,   0.900509
  0.648649,   0.401780,   0.899199
  0.657658,   0.401411,   0.897895
  0.666667,   0.401044,   0.896597
  0.675676,   0.400678,   0.895305
  0.684685,   0.400314,   0.894019
  0.693694,   0.399952,   0.892739
  0.702703,   0.399591,   0.891464
  0.711712,   0.399231,   0.890196
  0.720721,   0.398874,   0.888934
  0.729730,   0.398518,   0.887677
  0.738739,   0.398163,   0.886427
  0.747748,   0.397810,   0.885182
  0.756757,   0.397459,   0.883943
  0.765766,   0.397109,   0.882711
  0.774775,   0.396761,   0.881483
  0.783784,   0.396414,   0.880262
  0.792793,   0.396069,   0.879047
  0.801802,   0.395725,   0.877837
  0.810811,   0.395383,   0.876633
  0.819820,   0.395043,   0.875435
  0.828829,   0.394704,   0.874242
  0.837838,   0.394366,   0.873056
  0.846847,   0.394030,   0.871875
  0.855856,   0.393696,   0.870699
  0.864865,   0.393363,   0.869529
  0.873874,   0.393032,   0.868365
  0.882883,   0.392702,   0.867206
  0.891892,   0.392373,   0.866053
  0.900901,   0.392046,   0.864905
  0.909910,   0.391721,   0.863763
  0.918919,   0.391397,   0.862626
  0.927928,   0.391075,   0.861495
  0.936937,   0.390754,   0.860369
  0.945946,   0.390434,   0.859248
  0.954955,   0.390116,   0.858133
  0.963964,   0.389799,   0.857023
  0.972973,   0.389484,   0.855918
  0.981982,   0.389170,   0.854818
  0.990991,   0.388858,   0.853724
  1.000000,   0.388546,   0.852635
  1.009009,   0.388237,   0.851551
  1.018018,   0.387929,   0.850472
  1.027027,   0.387622,   0.849398
  1.036036,   0.387316,   0.848330
  1.045045,   0.387012,   0.847266
  1.054054,   0.386709,   0.846207
  1.063063,   0.386408,   0.845154
  1.072072,   0.386108,   0.844105
  1.081081,   0.385809,   0.843061
  1.090090,   0.385512,   0.842022
  1.099099,   0.385216,   0.840988
  1.108108,   0.384921,   0.839959
  1.117117,   0.384627,   0.838934
  1.126126,   0.384335,   0.837915
  1.135135,   0.384044,   0.836900
  1.144144,   0.383755,   0.835889
  1.153153,   0.383466,   0.834884
  1.162162,   0.383179,   0.833883
  1.171171,   0.382894,   0.832887
  1.180180,   0.382609,   0.831895
  1.189189,   0.382326,   0.830908
  1.198198,   0.382044,   0.829925
  1.207207,   0.381763,   0.828947
  1.216216,   0.381483,   0.827973
  1.225225,   0.381205,   0.827004
  1.234234,   0.380928,   0.826039
  1.243243,   0.380652,   0.825079
  1.252252,   0.380377,   0.824123
  1.261261,   0.380103,   0.823171
  1.270270,   0.379831,   0.822223
  1.279279,   0.379560,   0.821280
  1.288288,   0.379289,   0.820341
  1.297297,   0.379020,   0.819406
  1.306306,   0.378753,   0.818476
  1.315315,   0.378486,   0.817549
  1.324324,   0.378220,   0.816627
  1.333333,   0.377956,   0.815709
  1.342342,   0.377693,   0.814795
  1.351351,   0.377431,   0.813885
  1.360360,   0.377170,   0.812979
  1.369369,   0.376910,   0.812077
  1.378378,   0.376651,   0.811179
  1.387387,   0.376393,   0.810285
  1.396396,   0.376136,   0.809395
  1.405405,   0.375881,   0.808508
  1.414414,   0.375626,   0.807626
  1.423423,   0.375372,   0.806747
  1.432432,   0.375120,   0.805873
  1.441441,   0.374869,   0.805002
  1.450450,   0.374618,   0.804134
  1.459459,   0.374369,   0.803271
  1.468468,   0.374120,   0.802411
  1.477477,   0.373873,   0.801555
  1.486486,   0.373627,   0.800703
  1.495495,   0.373382,   0.799854
  1.504505,   0.373137,   0.799009
  1.513514,   0.372894,   0.798168
  1.522523,   0.372652,   0.797330
  1.531532,   0.372410,   0.796495
  1.540541,   0.372170,   0.795665
  1.549550,   0.371930,   0.794837
  1.558559,   0.371692,   0.794013
  1.567568,   0.371455,   0.793193
  1.576577,   0.371218,   0.792376
  1.585586,   0.370982,   0.791562
  1.594595,   0.370748,   0.790752
  1.603604,   0.370514,   0.789946
  1.612613,   0.370281,   0.789142
  1.621622,   0.370049,   0.788342
  1.630631,   0.369818,   0.787545
  1.639640,   0.369588,   0.786752
  1.648649,   0.369359,   0.785961
  1.657658,   0.369131,   0.785174
  1.666667,   0.368904,   0.784391
  1.675676,   0.368677,   0.783610
  1.684685,   0.368451,   0.782833
  1.693694,   0.368227,   0.782058
  1.702703,   0.368003,   0.781287
  1.711712,   0.367780,   0.780519
  1.720721,   0.367558,   0.779754
  1.729730,   0.367336,   0.778992
  1.738739,   0.367116,   0.778234
  1.747748,   0.366896,   0.777478
  1.756757,   0.366678,   0.776725
  1.765766,   0.366460,   0.775976
  1.774775,   0.366243,   0.775229
  1.783784,   0.366026,   0.774485
  1.792793,   0.365811,   0.773744
  1.801802,   0.365596,   0.773006
  1.810811,   0.365382,   0.772271
  1.819820,   0.365169,   0.771539
  1.828829,   0.364957,   0.770810
  1.837838,   0.364746,   0.770084
  1.846847,   0.364535,   0.769360
  1.855856,   0.364325,   0.768639
  1.864865,   0.364116,   0.767921
  1.873874,   0.363908,   0.767206
  1.882883,   0.363700,   0.766494
  1.891892,   0.363493,   0.765784
  1.900901,   0.363287,   0.765077
  1.909910,   0.363082,   0.764373
  1.918919,   0.362878,   0.763671
  1.927928,   0.362674,   0.762972
  1.936937,   0.362471,   0.762276
  1.945946,   0.362268,   0.761583
  1.954955,   0.362067,   0.760892
  1.963964,   0.361866,   0.760203
  1.972973,   0.361666,   0.759518
  1.981982,   0.361466,   0.758835
  1.990991,   0.361268,   0.758154
  2.000000,   0.361070,   0.757476
  2.009009,   0.360873,   0.756801
  2.018018,   0.360676,   0.756128
  2.027027,   0.360480,   0.755457
  2.036036,   0.360285,   0.754789
  2.045045,   0.360090,   0.754124
  2.054054,   0.359897,   0.753461
  2.063063,   0.359703,   0.752800
  2.072072,   0.359511,   0.752142
  2.081081,   0.359319,   0.751486
  2.090090,   0.359128,   0.750833
  2.099099,   0.358938,   0.750182
  2.108108,   0.358748,   0.749533
  2.117117,   0.358559,   0.748887
  2.126126,   0.358370,   0.748243
  2.135135,   0.358183,   0.747601
  2.144144,   0.357995,   0.746962
  2.153153,   0.357809,   0.746325
  2.162162,   0.357623,   0.745690
  2.171171,   0.357438,   0.745058
  2.180180,   0.357253,   0.744427
  2.189189,   0.357069,   0.743799
  2.198198,   0.356886,   0.743174
  2.207207,   0.356703,   0.742550
  2.216216,   0.356521,   0.741929
  2.225225,   0.356340,   0.741310
  2.234234,   0.356159,   0.740693
  2.243243,   0.355978,   0.740078
  2.252252,   0.355799,   0.739466
  2.261261,   0.355620,   0.738855
  2.270270,   0.355441,   0.738247
  2.279279,   0.355263,   0.737641
  2.288288,   0.355086,   0.737037
  2.297297,   0.354909,   0.736435
  2.306306,   0.354733,   0.735835
  2.315315,   0.354558,   0.735237
  2.324324,   0.354383,   0.734641
  2.333333,   0.354208,   0.734047
  2.342342,   0.354034,   0.733456
  2.351351,   0.353861,   0.732866
  2.360360,   0.353688,   0.732278
  2.369369,   0.353516,   0.731692
  2.378378,   0.353345,   0.731109
  2.387387,   0.353174,   0.730527
  2.396396,   0.353003,   0.729947
  2.405405,   0.352833,   0.729369
  2.414414,   0.352664,   0.728794
  2.423423,   0.352495,   0.728220
  2.432432,   0.352327,   0.727648
  2.441441,   0.352159,   0.727078
  2.450450,   0.351992,   0.726509
  2.459459,   0.351825,   0.725943
  2.468468,   0.351659,   0.725379
  2.477477,   0.351493,   0.724816
  2.486486,   0.351328,   0.724255
  2.495495,   0.351164,   0.723697
  2.504505,   0.351000,   0.723139
  2.513514,   0.350836,   0.722584
  2.522523,   0.350673,   0.722031
  2.531532,   0.350511,   0.721479
  2.540541,   0.350349,   0.720930
  2.549550,   0.350187,   0.720382
  2.558559,   0.350026,   0.719835
  2.567568,   0.349865,   0.719291
  2.576577,   0.349705,   0.718748
  2.585586,   0.349546,   0.718207
  2.594595,   0.349387,   0.717668
  2.603604,   0.349228,   0.717131
  2.612613,   0.349070,   0.716595
  2.621622,   0.348913,   0.716061
  2.630631,   0.348756,   0.715528
  2.639640,   0.348599,   0.714998
  2.648649,   0.348443,   0.714469
  2.657658,   0.348287,   0.713942
  2.666667,   0.348132,   0.713416
  2.675676,   0.347977,   0.712892
  2.684685,   0.347823,   0.712370
  2.693694,   0.347669,   0.711849
  2.702703,   0.347516,   0.711330
  2.711712,   0.347363,   0.710813
  2.720721,   0.347210,   0.710297
  2.729730,   0.347058,   0.709783
  2.738739,   0.346907,   0.709270
  2.747748,   0.346756,   0.708759
  2.756757,   0.346605,   0.708249
  2.765766,   0.346455,   0.707742
  2.774775,   0.346305,   0.707235
  2.783784,   0.346156,   0.706731
  2.792793,   0.346007,   0.706227
  2.801802,   0.345859,   0.705726
  2.810811,   0.345711,   0.705226
  2.819820,   0.345563,   0.704727
  2.828829,   0.345416,   0.704230
  2.837838,   0.345269,   0.703734
  2.846847,   0.345123,   0.703240
  2.855856,   0.344977,   0.702748
  2.864865,   0.344832,   0.702256
  2.873874,   0.344687,   0.701767
  2.882883,   0.344542,   0.701279
  2.891892,   0.344398,   0.700792
  2.900901,   0.344254,   0.700307
  2.909910,   0.344111,   0.699823
  2.918919,   0.343968,   0.699340
  2.927928,   0.343825,   0.698860
  2.936937,   0.343683,   0.698380
  2.945946,   0.343541,   0.697902
  2.954955,   0.343400,   0.697425
  2.963964,   0.343259,   0.696950
  2.972973,   0.343118,   0.696476
  2.981982,   0.342978,   0.696004
  2.990991,   0.342838,   0.695532
  3.000000,   0.342699,   0.695063
  3.009009,   0.342560,   0.694594
  3.018018,   0.342421,   0.694127
  3.027027,   0.342283,   0.693662
  3.036036,   0.342145,   0.693197
  3.045045,   0.342008,   0.692734
  3.054054,   0.341871,   0.692273
  3.063063,   0.341734,   0.691813
  3.072072,   0.341598,   0.691354
  3.081081,   0.341462,   0.690896
  3.090090,   0.341326,   0.690440
  3.099099,   0.341191,   0.689984
  3.108108,   0.341056,   0.689531
  3.117117,   0.340922,   0.689078
  3.126126,   0.340787,   0.688627
  3.135135,   0.340654,   0.688177
  3.144144,   0.340520,   0.687729
  3.153153,   0.340387,   0.687281
  3.162162,   0.340255,   0.686835
  3.171171,   0.340122,   0.686390
  3.180180,   0.339990,   0.685947
  3.189189,   0.339859,   0.685504
  3.198198,   0.339728,   0.685063
  3.207207,   0.339597,   0.684623
  3.216216,   0.339466,   0.684185
  3.225225,   0.339336,   0.683747
  3.234234,   0.339206,   0.683311
  3.243243,   0.339077,   0.682876
  3.252252,   0.338947,   0.682442
  3.261261,   0.338819,   0.682009
  3.270270,   0.338690,   0.681578
  3.279279,   0.338562,   0.681148
  3.288288,   0.338434,   0.680719
  3.297297,   0.338307,   0.680291
  3.306306,   0.338179,   0.679864
  3.315315,   0.338053,   0.679438
  3.324324,   0.337926,   0.679014
  3.333333,   0.337800,   0.678591
  3.342342,   0.337674,   0.678169
  3.351351,   0.337549,   0.677748
  3.360360,   0.337423,   0.677328
  3.369369,   0.337298,   0.676909
  3.378378,   0.337174,   0.676491
  3.387387,   0.337050,   0.676075
  3.396396,   0.336926,   0.675659
  3.405405,   0.336802,   0.675245
  3.414414,   0.336679,   0.674832
  3.423423,   0.336556,   0.674420
  3.432432,   0.336433,   0.674009
  3.441441,   0.336311,   0.673599
  3.450450,   0.336189,   0.673190
  3.459459,   0.336067,   0.672783
  3.468468,   0.335946,   0.672376
  3.477477,   0.335825,   0.671970
  3.486486,   0.335704,   0.671566
  3.495495,   0.335583,   0.671162
  3.504505,   0.335463,   0.670760
  3.513514,   0.335343,   0.670359
  3.522523,   0.335224,   0.669958
  3.531532,   0.335104,   0.669559
  3.540541,   0.334985,   0.669161
  3.549550,   0.334867,   0.668764
  3.558559,   0.334748,   0.668368
  3.567568,   0.334630,   0.667972
  3.576577,   0.334512,   0.667578
  3.585586,   0.334395,   0.667185
  3.594595,   0.334277,   0.666793
  3.603604,   0.334161,   0.666402
  3.612613,   0.334044,   0.666012
  3.621622,   0.333927,   0.665623
  3.630631,   0.333811,   0.665235
  3.639640,   0.333695,   0.664848
  3.648649,   0.333580,   0.664461
  3.657658,   0.333465,   0.664076
  3.666667,   0.333350,   0.663692
  3.675676,   0.333235,   0.663309
  3.684685,   0.333121,   0.662927
  3.693694,   0.333006,   0.662545
  3.702703,   0.332892,   0.662165
  3.711712,   0.332779,   0.661785
  3.720721,   0.332666,   0.661407
  3.729730,   0.332552,   0.661030
  3.738739,   0.332440,   0.660653
  3.747748,   0.332327,   0.660277
  3.756757,   0.332215,   0.659903
  3.765766,   0.332103,   0.659529
  3.774775,   0.331991,   0.659156
  3.783784,   0.331880,   0.658784
  3.792793,   0.331768,   0.658413
  3.801802,   0.331657,   0.658043
  3.810811,   0.331547,   0.657674
  3.819820,   0.331436,   0.657306
  3.828829,   0.331326,   0.656938
  3.837838,   0.331216,   0.656572
  3.846847,   0.331107,   0.656206
  3.855856,   0.330997,   0.655842
  3.864865,   0.330888,   0.655478
  3.873874,   0.330779,   0.655115
  3.882883,   0.330671,   0.654753
  3.891892,   0.330562,   0.654392
  3.900901,   0.330454,   0.654031
  3.909910,   0.330346,   0.653672
  3.918919,   0.330239,   0.653313
  3.927928,   0.330131,   0.652956
  3.936937,   0.330024,   0.652599
  3.945946,   0.329917,   0.652243
  3.954955,   0.329810,   0.651888
  3.963964,   0.329704,   0.651533
  3.972973,   0.329598,   0.651180
  3.981982,   0.329492,   0.650827
  3.990991,   0.329386,   0.650476
  4.000000,   0.329281,   0.650125
  4.009009,   0.329176,   0.649775
  4.018018,   0.329071,   0.649425
  4.027027,   0.328966,   0.649077
  4.036036,   0.328861,   0.648729
  4.045045,   0.328757,   0.648382
  4.054054,   0.328653,   0.648036
  4.063063,   0.328549,   0.647691
  4.072072,   0.328446,   0.647347
  4.081081,   0.328342,   0.647003
  4.090090,   0.328239,   0.646660
  4.099099,   0.328136,   0.646318
  4.108108,   0.328034,   0.645977
  4.117117,   0.327931,   0.645637
  4.126126,   0.327829,   0.645297
  4.135135,   0.327727,   0.644958
  4.144144,   0.327625,   0.644620
  4.153153,   0.327524,   0.644283
  4.162162,   0.327423,   0.643946
  4.171171,   0.327322,   0.643610
  4.180180,   0.327221,   0.643276
  4.189189,   0.327120,   0.642941
  4.198198,   0.327020,   0.642608
  4.207207,   0.326920,   0.642275
  4.216216,   0.326820,   0.641943
  4.225225,   0.326720,   0.641612
  4.234234,   0.326620,   0.641282
  4.243243,   0.326521,   0.640952
  4.252252,   0.326422,   0.640623
  4.261261,   0.326323,   0.640295
  4.270270,   0.326224,   0.639967
  4.279279,   0.326126,   0.639641
  4.288288,   0.326028,   0.639315
  4.297297,   0.325929,   0.638989
  4.306306,   0.325832,   0.638665
  4.315315,   0.325734,   0.638341
  4.324324,   0.325637,   0.638018
  4.333333,   0.325539,   0.637695
  4.342342,   0.325442,   0.637374
  4.351351,   0.325346,   0.637053
  4.360360,   0.325249,   0.636733
  4.369369,   0.325153,   0.636413
  4.378378,   0.325056,   0.636094
  4.387387,   0.324960,   0.635776
  4.396396,   0.324865,   0.635459
  4.405405,   0.324769,   0.635142
  4.414414,   0.324674,   0.634826
  4.423423,   0.324578,   0.634511
  4.432432,   0.324483,   0.634196
  4.441441,   0.324389,   0.633882
  4.450450,   0.324294,   0.633569
  4.459459,   0.324200,   0.633256
  4.468468,   0.324105,   0.632944
  4.477477,   0.324012,   0.632633
  4.486486,   0.323918,   0.632322
  4.495495,   0.323824,   0.632012
  4.504505,   0.323731,   0.631703
  4.513514,   0.323637,   0.631395
  4.522523,   0.323544,   0.631087
  4.531532,   0.323452,   0.630779
  4.540541,   0.323359,   0.630473
  4.549550,   0.323266,   0.630167
  4.558559,   0.323174,   0.629862
  4.567568,   0.323082,   0.629557
  4.576577,   0.322990,   0.629253
  4.585586,   0.322898,   0.628950
  4.594595,   0.322807,   0.628647
  4.603604,   0.322716,   0.628345
  4.612613,   0.322624,   0.628043
  4.621622,   0.322534,   0.627743
  4.630631,   0.322443,   0.627443
  4.639640,   0.322352,   0.627143
  4.648649,   0.322262,   0.626844
  4.657658,   0.322171,   0.626546
  4.666667,   0.322081,   0.626248
  4.675676,   0.321992,   0.625951
  4.684685,   0.321902,   0.625655
  4.693694,   0.321812,   0.625359
  4.702703,   0.321723,   0.625064
  4.711712,   0.321634,   0.624769
  4.720721,   0.321545,   0.624476
  4.729730,   0.321456,   0.624182
  4.738739,   0.321367,   0.623889
  4.747748,   0.321279,   0.623597
  4.756757,   0.321191,   0.623306
  4.765766,   0.321103,   0.623015
  4.774775,   0.321015,   0.622725
  4.783784,   0.320927,   0.622435
  4.792793,   0.320839,   0.622146
  4.801802,   0.320752,   0.621857
  4.810811,   0.320665,   0.621569
  4.819820,   0.320578,   0.621282
  4.828829,   0.320491,   0.620995
  4.837838,   0.320404,   0.620709
  4.846847,   0.320317,   0.620424
  4.855856,   0.320231,   0.620139
  4.864865,   0.320145,   0.619854
  4.873874,   0.320059,   0.619570
  4.882883,   0.319973,   0.619287
  4.891892,   0.319887,   0.619004
  4.900901,   0.319802,   0.618722
  4.909910,   0.319716,   0.618441
  4.918919,   0.319631,   0.618160
  4.927928,   0.319546,   0.617879
  4.936937,   0.319461,   0.617599
  4.945946,   0.319376,   0.617320
  4.954955,   0.319292,   0.617041
  4.963964,   0.319207,   0.616763
  4.972973,   0.319123,   0.616485
  4.981982,   0.319039,   0.616208
  4.990991,   0.318955,   0.615932
  5.000000,   0.318871,   0.615656
  5.009009,   0.318787,   0.615380
  5.018018,   0.318704,   0.615105
  5.027027,   0.318621,   0.614831
  5.036036,   0.318538,   0.614557
  5.045045,   0.318455,   0.614284
  5.054054,   0.318372,   0.614011
  5.063063,   0.318289,   0.613739
  5.072072,   0.318207,   0.613467
  5.081081,   0.318124,   0.613196
  5.090090,   0.318042,   0.612925
  5.099099,   0.317960,   0.612655
  5.108108,   0.317878,   0.612386
  5.117117,   0.317796,   0.612117
  5.126126,   0.317715,   0.611848
