h[m], water_content[-], rel_perm[-]
  0.000000,   0.460000,   1.000000
  0.009009,   0.459655,   0.998765
  0.018018,   0.459111,   0.997033
  0.027027,   0.458457,   0.995058
  0.036036,   0.457721,   0.992914
  0.045045,   0.456920,   0.990643
  0.054054,   0.456064,   0.988271
  0.063063,   0.455163,   0.985818
  0.072072,   0.454223,   0.983299
  0.081081,   0.453249,   0.980724
  0.090090,   0.452245,   0.978104
  0.099099,   0.451214,   0.975445
  0.108108,   0.450161,   0.972756
  0.117117,   0.449088,   0.970041
  0.126126,   0.447998,   0.967305
  0.135135,   0.446892,   0.964552
  0.144144,   0.445772,   0.961788
  0.153153,   0.444641,   0.959014
  0.162162,   0.443501,   0.956233
  0.171171,   0.442351,   0.953449
  0.180180,   0.441195,   0.950664
  0.189189,   0.440032,   0.947879
  0.198198,   0.438865,   0.945097
  0.207207,   0.437694,   0.942319
  0.216216,   0.436520,   0.939547
  0.225225,   0.435344,   0.936783
  0.234234,   0.434167,   0.934026
  0.243243,   0.432989,   0.931279
  0.252252,   0.431812,   0.928543
  0.261261,   0.430636,   0.925818
  0.270270,   0.429460,   0.923106
  0.279279,   0.428287,   0.920406
  0.288288,   0.427116,   0.917720
  0.297297,   0.425948,   0.915048
  0.306306,   0.424784,   0.912391
  0.315315,   0.423622,   0.909749
  0.324324,   0.422465,   0.907122
  0.333333,   0.421312,   0.904512
  0.342342,   0.420164,   0.901917
  0.351351,   0.419021,   0.899339
  0.360360,   0.417882,   0.896778
  0.369369,   0.416749,   0.894234
  0.378378,   0.415621,   0.891707
  0.387387,   0.414499,   0.889197
  0.396396,   0.413383,   0.886704
  0.405405,   0.412273,   0.884229
  0.414414,   0.411169,   0.881772
  0.423423,   0.410071,   0.879332
  0.432432,   0.408980,   0.876909
  0.441441,   0.407895,   0.874505
  0.450450,   0.406817,   0.872118
  0.459459,   0.405745,   0.869749
  0.468468,   0.404680,   0.867397
  0.477477,   0.403622,   0.865063
  0.486486,   0.402570,   0.862746
  0.495495,   0.401526,   0.860447
  0.504505,   0.400488,   0.858165
  0.513514,   0.399457,   0.855901
  0.522523,   0.398433,   0.853654
  0.531532,   0.397416,   0.851424
  0.540541,   0.396406,   0.849212
  0.549550,   0.395403,   0.847016
  0.558559,   0.394406,   0.844837
  0.567568,   0.393417,   0.842675
  0.576577,   0.392435,   0.840529
  0.585586,   0.391459,   0.838400
  0.594595,   0.390491,   0.836288
  0.603604,   0.389529,   0.834192
  0.612613,   0.388574,   0.832112
  0.621622,   0.387626,   0.830047
  0.630631,   0.386685,   0.827999
  0.639640,   0.385750,   0.825967
  0.648649,   0.384823,   0.823950
  0.657658,   0.383902,   0.821949
  0.666667,   0.382987,   0.819963
  0.675676,   0.382080,   0.817993
  0.684685,   0.381178,   0.816037
  0.693694,   0.380284,   0.814096
  0.702703,   0.379396,   0.812171
  0.711712,   0.378514,   0.810259
  0.720721,   0.377639,   0.808363
  0.729730,   0.376770,   0.806481
  0.738739,   0.375908,   0.804613
  0.747748,   0.375052,   0.802759
  0.756757,   0.374202,   0.800919
  0.765766,   0.373358,   0.799093
  0.774775,   0.372520,   0.797281
  0.783784,   0.371689,   0.795482
  0.792793,   0.370863,   0.793696
  0.801802,   0.370044,   0.791924
  0.810811,   0.369230,   0.790165
  0.819820,   0.368422,   0.788419
  0.828829,   0.367620,   0.786686
  0.837838,   0.366824,   0.784966
  0.846847,   0.366034,   0.783258
  0.855856,   0.365249,   0.781563
  0.864865,   0.364470,   0.779880
  0.873874,   0.363697,   0.778210
  0.882883,   0.362929,   0.776551
  0.891892,   0.362166,   0.774905
  0.900901,   0.361409,   0.773270
  0.909910,   0.360658,   0.771647
  0.918919,   0.359911,   0.770036
  0.927928,   0.359170,   0.768436
  0.936937,   0.358434,   0.766848
  0.945946,   0.357704,   0.765271
  0.954955,   0.356978,   0.763705
  0.963964,   0.356258,   0.762150
  0.972973,   0.355543,   0.760606
  0.981982,   0.354832,   0.759072
  0.990991,   0.354127,   0.757550
  1.000000,   0.353426,   0.756038
  1.009009,   0.352731,   0.754536
  1.018018,   0.352040,   0.753045
  1.027027,   0.351354,   0.751564
  1.036036,   0.350672,   0.750093
  1.045045,   0.349996,   0.748632
  1.054054,   0.349323,   0.747181
  1.063063,   0.348656,   0.745740
  1.072072,   0.347993,   0.744309
  1.081081,   0.347334,   0.742887
  1.090090,   0.346680,   0.741475
  1.099099,   0.346030,   0.740072
  1.108108,   0.345385,   0.738678
  1.117117,   0.344744,   0.737294
  1.126126,   0.344107,   0.735919
  1.135135,   0.343475,   0.734553
  1.144144,   0.342846,   0.733196
  1.153153,   0.342222,   0.731847
  1.162162,   0.341602,   0.730508
  1.171171,   0.340986,   0.729177
  1.180180,   0.340374,   0.727855
  1.189189,   0.339766,   0.726541
  1.198198,   0.339162,   0.725236
  1.207207,   0.338562,   0.723939
  1.216216,   0.337966,   0.722650
  1.225225,   0.337373,   0.721370
  1.234234,   0.336785,   0.720097
  1.243243,   0.336200,   0.718833
  1.252252,   0.335619,   0.717576
  1.261261,   0.335041,   0.716328
  1.270270,   0.334467,   0.715087
  1.279279,   0.333897,   0.713853
  1.288288,   0.333331,   0.712628
  1.297297,   0.332767,   0.711410
  1.306306,   0.332208,   0.710199
  1.315315,   0.331652,   0.708996
  1.324324,   0.331099,   0.707800
  1.333333,   0.330550,   0.706612
  1.342342,   0.330004,   0.705430
  1.351351,   0.329462,   0.704256
  1.360360,   0.328923,   0.703089
  1.369369,   0.328387,   0.701928
  1.378378,   0.327854,   0.700775
  1.387387,   0.327325,   0.699628
  1.396396,   0.326799,   0.698489
  1.405405,   0.326276,   0.697356
  1.414414,   0.325756,   0.696229
  1.423423,   0.325239,   0.695109
  1.432432,   0.324726,   0.693996
  1.441441,   0.324215,   0.692889
  1.450450,   0.323707,   0.691789
  1.459459,   0.323203,   0.690695
  1.468468,   0.322701,   0.689607
  1.477477,   0.322203,   0.688526
  1.486486,   0.321707,   0.687450
  1.495495,   0.321214,   0.686381
  1.504505,   0.320724,   0.685318
  1.513514,   0.320237,   0.684260
  1.522523,   0.319752,   0.683209
  1.531532,   0.319271,   0.682164
  1.540541,   0.318792,   0.681124
  1.549550,   0.318316,   0.680090
  1.558559,   0.317842,   0.679062
  1.567568,   0.317372,   0.678040
  1.576577,   0.316903,   0.677023
  1.585586,   0.316438,   0.676012
  1.594595,   0.315975,   0.675007
  1.603604,   0.315515,   0.674006
  1.612613,   0.315057,   0.673012
  1.621622,   0.314602,   0.672022
  1.630631,   0.314150,   0.671038
  1.639640,   0.313699,   0.670060
  1.648649,   0.313252,   0.669086
  1.657658,   0.312807,   0.668118
  1.666667,   0.312364,   0.667155
  1.675676,   0.311924,   0.666197
  1.684685,   0.311486,   0.665244
  1.693694,   0.311050,   0.664296
  1.702703,   0.310617,   0.663353
  1.711712,   0.310186,   0.662415
  1.720721,   0.309757,   0.661481
  1.729730,   0.309331,   0.660553
  1.738739,   0.308907,   0.659629
  1.747748,   0.308485,   0.658711
  1.756757,   0.308066,   0.657797
  1.765766,   0.307648,   0.656887
  1.774775,   0.307233,   0.655982
  1.783784,   0.306820,   0.655082
  1.792793,   0.306409,   0.654187
  1.801802,   0.306001,   0.653296
  1.810811,   0.305594,   0.652409
  1.819820,   0.305189,   0.651527
  1.828829,   0.304787,   0.650649
  1.837838,   0.304387,   0.649776
  1.846847,   0.303988,   0.648907
  1.855856,   0.303592,   0.648042
  1.864865,   0.303198,   0.647182
  1.873874,   0.302806,   0.646326
  1.882883,   0.302416,   0.645474
  1.891892,   0.302027,   0.644626
  1.900901,   0.301641,   0.643782
  1.909910,   0.301257,   0.642942
  1.918919,   0.300874,   0.642107
  1.927928,   0.300493,   0.641275
  1.936937,   0.300115,   0.640448
  1.945946,   0.299738,   0.639624
  1.954955,   0.299363,   0.638805
  1.963964,   0.298990,   0.637989
  1.972973,   0.298619,   0.637177
  1.981982,   0.298249,   0.636369
  1.990991,   0.297881,   0.635565
  2.000000,   0.297515,   0.634765
  2.009009,   0.297151,   0.633968
  2.018018,   0.296789,   0.633175
  2.027027,   0.296428,   0.632386
  2.036036,   0.296069,   0.631600
  2.045045,   0.295712,   0.630818
  2.054054,   0.295357,   0.630040
  2.063063,   0.295003,   0.629265
  2.072072,   0.294651,   0.628494
  2.081081,   0.294300,   0.627727
  2.090090,   0.293951,   0.626962
  2.099099,   0.293604,   0.626202
  2.108108,   0.293259,   0.625444
  2.117117,   0.292915,   0.624691
  2.126126,   0.292572,   0.623940
  2.135135,   0.292232,   0.623193
  2.144144,   0.291892,   0.622449
  2.153153,   0.291555,   0.621709
  2.162162,   0.291219,   0.620972
  2.171171,   0.290884,   0.620238
  2.180180,   0.290551,   0.619508
  2.189189,   0.290220,   0.618780
  2.198198,   0.289890,   0.618056
  2.207207,   0.289561,   0.617335
  2.216216,   0.289234,   0.616617
  2.225225,   0.288909,   0.615903
  2.234234,   0.288585,   0.615191
  2.243243,   0.288262,   0.614482
  2.252252,   0.287941,   0.613777
  2.261261,   0.287621,   0.613074
  2.270270,   0.287303,   0.612375
  2.279279,   0.286986,   0.611679
  2.288288,   0.286670,   0.610985
  2.297297,   0.286356,   0.610295
  2.306306,   0.286043,   0.609607
  2.315315,   0.285732,   0.608922
  2.324324,   0.285422,   0.608241
  2.333333,   0.285113,   0.607562
  2.342342,   0.284805,   0.606886
  2.351351,   0.284499,   0.606212
  2.360360,   0.284195,   0.605542
  2.369369,   0.283891,   0.604874
  2.378378,   0.283589,   0.604209
  2.387387,   0.283288,   0.603547
  2.396396,   0.282989,   0.602888
  2.405405,   0.282690,   0.602231
  2.414414,   0.282393,   0.601577
  2.423423,   0.282098,   0.600926
  2.432432,   0.281803,   0.600277
  2.441441,   0.281510,   0.599631
  2.450450,   0.281218,   0.598988
  2.459459,   0.280927,   0.598347
  2.468468,   0.280637,   0.597709
  2.477477,   0.280349,   0.597073
  2.486486,   0.280062,   0.596440
  2.495495,   0.279776,   0.595809
  2.504505,   0.279491,   0.595181
  2.513514,   0.279207,   0.594555
  2.522523,   0.278924,   0.593932
  2.531532,   0.278643,   0.593312
  2.540541,   0.278363,   0.592693
  2.549550,   0.278084,   0.592078
  2.558559,   0.277806,   0.591464
  2.567568,   0.277529,   0.590853
  2.576577,   0.277253,   0.590245
  2.585586,   0.276979,   0.589638
  2.594595,   0.276705,   0.589035
  2.603604,   0.276433,   0.588433
  2.612613,   0.276161,   0.587834
  2.621622,   0.275891,   0.587237
  2.630631,   0.275622,   0.586642
  2.639640,   0.275354,   0.586050
  2.648649,   0.275087,   0.585460
  2.657658,   0.274821,   0.584872
  2.666667,   0.274556,   0.584286
  2.675676,   0.274292,   0.583703
  2.684685,   0.274029,   0.583122
  2.693694,   0.273767,   0.582543
  2.702703,   0.273506,   0.581966
  2.711712,   0.273246,   0.581391
  2.720721,   0.272987,   0.580819
  2.729730,   0.272729,   0.580248
  2.738739,   0.272473,   0.579680
  2.747748,   0.272217,   0.579114
  2.756757,   0.271962,   0.578550
  2.765766,   0.271708,   0.577988
  2.774775,   0.271455,   0.577428
  2.783784,   0.271203,   0.576870
  2.792793,   0.270952,   0.576314
  2.801802,   0.270702,   0.575760
  2.810811,   0.270452,   0.575209
  2.819820,   0.270204,   0.574659
  2.828829,   0.269957,   0.574111
  2.837838,   0.269711,   0.573565
  2.846847,   0.269465,   0.573021
  2.855856,   0.269221,   0.572480
  2.864865,   0.268977,   0.571940
  2.873874,   0.268734,   0.571402
  2.882883,   0.268492,   0.570865
  2.891892,   0.268251,   0.570331
  2.900901,   0.268011,   0.569799
  2.909910,   0.267772,   0.569269
  2.918919,   0.267534,   0.568740
  2.927928,   0.267296,   0.568213
  2.936937,   0.267060,   0.567688
  2.945946,   0.266824,   0.567166
  2.954955,   0.266589,   0.566644
  2.963964,   0.266355,   0.566125
  2.972973,   0.266122,   0.565607
  2.981982,   0.265889,   0.565092
  2.990991,   0.265658,   0.564578
  3.000000,   0.265427,   0.564066
  3.009009,   0.265197,   0.563555
  3.018018,   0.264968,   0.563047
  3.027027,   0.264740,   0.562540
  3.036036,   0.264513,   0.562034
  3.045045,   0.264286,   0.561531
  3.054054,   0.264060,   0.561029
  3.063063,   0.263835,   0.560529
  3.072072,   0.263611,   0.560031
  3.081081,   0.263387,   0.559534
  3.090090,   0.263165,   0.559039
  3.099099,   0.262943,   0.558546
  3.108108,   0.262722,   0.558054
  3.117117,   0.262501,   0.557564
  3.126126,   0.262282,   0.557076
  3.135135,   0.262063,   0.556589
  3.144144,   0.261845,   0.556104
  3.153153,   0.261627,   0.555620
  3.162162,   0.261411,   0.555139
  3.171171,   0.261195,   0.554658
  3.180180,   0.260979,   0.554179
  3.189189,   0.260765,   0.553702
  3.198198,   0.260551,   0.553227
  3.207207,   0.260338,   0.552753
  3.216216,   0.260126,   0.552280
  3.225225,   0.259915,   0.551809
  3.234234,   0.259704,   0.551340
  3.243243,   0.259494,   0.550872
  3.252252,   0.259284,   0.550405
  3.261261,   0.259075,   0.549940
  3.270270,   0.258867,   0.549477
  3.279279,   0.258660,   0.549015
  3.288288,   0.258453,   0.548555
  3.297297,   0.258247,   0.548096
  3.306306,   0.258042,   0.547638
  3.315315,   0.257838,   0.547182
  3.324324,   0.257634,   0.546727
  3.333333,   0.257430,   0.546274
  3.342342,   0.257228,   0.545823
  3.351351,   0.257026,   0.545372
  3.360360,   0.256824,   0.544923
  3.369369,   0.256624,   0.544476
  3.378378,   0.256424,   0.544030
  3.387387,   0.256224,   0.543585
  3.396396,   0.256026,   0.543142
  3.405405,   0.255828,   0.542700
  3.414414,   0.255630,   0.542259
  3.423423,   0.255433,   0.541820
  3.432432,   0.255237,   0.541382
  3.441441,   0.255042,   0.540946
  3.450450,   0.254847,   0.540511
  3.459459,   0.254652,   0.540077
  3.468468,   0.254459,   0.539644
  3.477477,   0.254266,   0.539213
  3.486486,   0.254073,   0.538783
  3.495495,   0.253881,   0.538355
  3.504505,   0.253690,   0.537928
  3.513514,   0.253499,   0.537502
  3.522523,   0.253309,   0.537077
  3.531532,   0.253120,   0.536654
  3.540541,   0.252931,   0.536232
  3.549550,   0.252743,   0.535811
  3.558559,   0.252555,   0.535391
  3.567568,   0.252368,   0.534973
  3.576577,   0.252181,   0.534556
  3.585586,   0.251995,   0.534140
  3.594595,   0.251810,   0.533726
  3.603604,   0.251625,   0.533312
  3.612613,   0.251441,   0.532900
  3.621622,   0.251257,   0.532489
  3.630631,   0.251074,   0.532079
  3.639640,   0.250891,   0.531671
  3.648649,   0.250709,   0.531264
  3.657658,   0.250528,   0.530858
  3.666667,   0.250347,   0.530453
  3.675676,   0.250166,   0.530049
  3.684685,   0.249987,   0.529646
  3.693694,   0.249807,   0.529245
  3.702703,   0.249628,   0.528845
  3.711712,   0.249450,   0.528446
  3.720721,   0.249272,   0.528048
  3.729730,   0.249095,   0.527651
  3.738739,   0.248919,   0.527255
  3.747748,   0.248742,   0.526861
  3.756757,   0.248567,   0.526468
  3.765766,   0.248392,   0.526075
  3.774775,   0.248217,   0.525684
  3.783784,   0.248043,   0.525294
  3.792793,   0.247870,   0.524905
  3.801802,   0.247696,   0.524518
  3.810811,   0.247524,   0.524131
  3.819820,   0.247352,   0.523745
  3.828829,   0.247180,   0.523361
  3.837838,   0.247009,   0.522977
  3.846847,   0.246839,   0.522595
  3.855856,   0.246669,   0.522214
  3.864865,   0.246499,   0.521833
  3.873874,   0.246330,   0.521454
  3.882883,   0.246161,   0.521076
  3.891892,   0.245993,   0.520699
  3.900901,   0.245826,   0.520323
  3.909910,   0.245659,   0.519948
  3.918919,   0.245492,   0.519574
  3.927928,   0.245326,   0.519201
  3.936937,   0.245160,   0.518829
  3.945946,   0.244995,   0.518458
  3.954955,   0.244830,   0.518089
  3.963964,   0.244666,   0.517720
  3.972973,   0.244502,   0.517352
  3.981982,   0.244338,   0.516985
  3.990991,   0.244175,   0.516619
  4.000000,   0.244013,   0.516254
  4.009009,   0.243851,   0.515890
  4.018018,   0.243689,   0.515528
  4.027027,   0.243528,   0.515166
  4.036036,   0.243368,   0.514805
  4.045045,   0.243207,   0.514445
  4.054054,   0.243048,   0.514086
  4.063063,   0.242888,   0.513728
  4.072072,   0.242729,   0.513371
  4.081081,   0.242571,   0.513015
  4.090090,   0.242413,   0.512659
  4.099099,   0.242255,   0.512305
  4.108108,   0.242098,   0.511952
  4.117117,   0.241941,   0.511600
  4.126126,   0.241785,   0.511248
  4.135135,   0.241629,   0.510898
  4.144144,   0.241474,   0.510548
  4.153153,   0.241319,   0.510199
  4.162162,   0.241164,   0.509852
  4.171171,   0.241010,   0.509505
  4.180180,   0.240856,   0.509159
  4.189189,   0.240703,   0.508814
  4.198198,   0.240550,   0.508470
  4.207207,   0.240397,   0.508127
  4.216216,   0.240245,   0.507784
  4.225225,   0.240093,   0.507443
  4.234234,   0.239942,   0.507102
  4.243243,   0.239791,   0.506762
  4.252252,   0.239640,   0.506424
  4.261261,   0.239490,   0.506086
  4.270270,   0.239341,   0.505749
  4.279279,   0.239191,   0.505412
  4.288288,   0.239042,   0.505077
  4.297297,   0.238894,   0.504742
  4.306306,   0.238745,   0.504409
  4.315315,   0.238598,   0.504076
  4.324324,   0.238450,   0.503744
  4.333333,   0.238303,   0.503413
  4.342342,   0.238157,   0.503083
  4.351351,   0.238010,   0.502753
  4.360360,   0.237865,   0.502424
  4.369369,   0.237719,   0.502097
  4.378378,   0.237574,   0.501770
  4.387387,   0.237429,   0.501443
  4.396396,   0.237285,   0.501118
  4.405405,   0.237141,   0.500794
  4.414414,   0.236997,   0.500470
  4.423423,   0.236854,   0.500147
  4.432432,   0.236711,   0.499825
  4.441441,   0.236569,   0.499503
  4.450450,   0.236427,   0.499183
  4.459459,   0.236285,   0.498863
  4.468468,   0.236143,   0.498544
  4.477477,   0.236002,   0.498226
  4.486486,   0.235862,   0.497908
  4.495495,   0.235721,   0.497592
  4.504505,   0.235581,   0.497276
  4.513514,   0.235442,   0.496961
  4.522523,   0.235302,   0.496647
  4.531532,   0.235163,   0.496333
  4.540541,   0.235025,   0.496020
  4.549550,   0.234886,   0.495708
  4.558559,   0.234748,   0.495397
  4.567568,   0.234611,   0.495086
  4.576577,   0.234474,   0.494777
  4.585586,   0.234337,   0.494468
  4.594595,   0.234200,   0.494159
  4.603604,   0.234064,   0.493852
  4.612613,   0.233928,   0.493545
  4.621622,   0.233793,   0.493239
  4.630631,   0.233657,   0.492934
  4.639640,   0.233523,   0.492629
  4.648649,   0.233388,   0.492325
  4.657658,   0.233254,   0.492022
  4.666667,   0.233120,   0.491719
  4.675676,   0.232986,   0.491418
  4.684685,   0.232853,   0.491117
  4.693694,   0.232720,   0.490816
  4.702703,   0.232588,   0.490517
  4.711712,   0.232455,   0.490218
  4.720721,   0.232323,   0.489920
  4.729730,   0.232192,   0.489622
  4.738739,   0.232061,   0.489325
  4.747748,   0.231930,   0.489029
  4.756757,   0.231799,   0.488734
  4.765766,   0.231669,   0.488439
  4.774775,   0.231538,   0.488145
  4.783784,   0.231409,   0.487851
  4.792793,   0.231279,   0.487559
  4.801802,   0.231150,   0.487267
  4.810811,   0.231021,   0.486975
  4.819820,   0.230893,   0.486685
  4.828829,   0.230765,   0.486395
  4.837838,   0.230637,   0.486105
  4.846847,   0.230509,   0.485817
  4.855856,   0.230382,   0.485529
  4.864865,   0.230255,   0.485241
  4.873874,   0.230128,   0.484955
  4.882883,   0.230002,   0.484668
  4.891892,   0.229876,   0.484383
  4.900901,   0.229750,   0.484098
  4.909910,   0.229624,   0.483814
  4.918919,   0.229499,   0.483531
  4.927928,   0.229374,   0.483248
  4.936937,   0.229250,   0.482966
  4.945946,   0.229125,   0.482684
  4.954955,   0.229001,   0.482403
  4.963964,   0.228877,   0.482123
  4.972973,   0.228754,   0.481843
  4.981982,   0.228631,   0.481564
  4.990991,   0.228508,   0.481286
  5.000000,   0.228385,   0.481008
  5.009009,   0.228263,   0.480731
  5.018018,   0.228141,   0.480454
  5.027027,   0.228019,   0.480178
  5.036036,   0.227897,   0.479903
  5.045045,   0.227776,   0.479628
  5.054054,   0.227655,   0.479354
  5.063063,   0.227535,   0.479080
  5.072072,   0.227414,   0.478807
  5.081081,   0.227294,   0.478535
  5.090090,   0.227174,   0.478263
  5.099099,   0.227055,   0.477992
  5.108108,   0.226935,   0.477722
  5.117117,   0.226816,   0.477452
  5.126126,   0.226697,   0.477182
